61
39
21
17
35
33
59
-47
-93
-47
-17
-23
-43
-74
-65
19
131
-1
3
39
-45
-95
-69
-47
-59
-61
-87
131
-17
-123
-63
-63
-87
-123
-27
5
-27
-53
-19
-23
-5
-9
-169
-169
-169
-43
-171
-163
-43
-171
-173
-171
-171
-175
-171
-171
-173
-171
-175
-177
-174
-175
-89
-95
-201
-96
-227
-209
-201
-213
-119
-89
-109
-109
-77
-59
-9
-63
-133
-99
-47
-53
-49
-67
-92
18
35
13
3
9
37
75
49
-59
-29
19
21
27
-5
-29
57
225
63
201
57
217
97
107
-11
-11
27
63
39
22
105
77
53
41
58
83
107
-13
-51
1
21
145
-15
-59
-15
77
55
39
5
39
51
103
-15
-61
-27
-3
19
-3
-23
61
21
-67
-33
-11
7
-23
-31
-81
23
37
66
35
-65
-75
-37
-12
-99
-13
39
-1
7
21
55
-71
-11
-29
-45
-79
-53
39
137
-17
27
55
-47
-107
-41
-27
-29
-53
-77
-85
21
17
-15
-25
-14
21
57
-41
-95
-61
-31
-23
-59
-77
-113
-9
21
-3
-45
-13
19
43
-13
-95
-77
-43
-27
-47
-58
-119
-31
37
129
-29
-35
-11
25
21
-87
-89
-55
-51
-41
-61
-105
-47
19
137
-15
-31
177
-71
-103
-69
-47
-75
-45
-117
-81
-45
-33
-59
-79
-81
1
-33
-9
-5
-107
-75
-45
-41
-39
-85
-111
-45
-27
137
-93
-101
-39
-57
-109
-37
133
137
-23
-33
-5
-3
35
-83
-111
-63
-43
-111
-75
13
-41
-29
5
45
-73
-45
-31
-69
-100
-111
-3
-41
-27
-5
23
-33
-101
-51
-29
-47
-43
-21
27
-17
-109
-91
-51
-41
-61
-65
-121
-59
25
-7
-31
11
31
-71
-79
-49
-27
-9
-35
55
61
-23
11
21
-17
-59
-63
19
23
-35
-47
-31
-29
19
-61
-123
-143
-47
-9
-41
-31
-131
-103
-69
-55
-62
-91
-137
-65
139
-59
-28
131
133
-93
-41
-27
-29
-19
17
53
-67
-111
-95
13
-21
-23
-17
15
41
-35
-77
-87
-43
-31
-51
-61
-91
-11
21
-5
-37
-15
17
41
5
-95
-63
-37
-29
-31
-67
-107
15
-25
-31
-3
19
27
-89
-107
-37
-37
-49
-41
-99
-37
181
-11
-3
17
41
-55
-23
-31
-51
-65
-69
31
17
-19
-27
63
-29
-25
-11
-31
-57
-63
35
43
-7
-21
7
37
81
27
-87
-53
-13
3
-23
-41
-77
29
57
17
-13
-1
23
63
47
-77
-67
-27
-9
-11
-31
-79
1
63
17
5
-9
23
57
51
-75
-93
-39
-27
-23
-47
-99
-33
41
17
9
-29
-9
23
63
-75
-94
-59
-55
-73
-85
27
19
-5
-23
-29
-3
49
-43
-101
-63
-53
-33
-49
-93
-117
-1
131
-21
-39
-37
2
21
-85
-59
-43
-55
-27
25
-15
-45
-33
-23
141
5
-117
-115
-69
-41
-43
-77
-121
-37
-41
-61
-29
-15
25
-97
-123
-77
-45
-37
-69
-113
-87
2
-14
-33
-55
-41
-17
35
-83
-95
-95
-59
-53
-71
-93
-109
-21
-3
-17
-45
-31
-3
21
-31
-127
-91
-57
-45
-33
-79
-123
-13
5
-17
-46
-47
-11
35
-11
-113
-93
-47
-41
-57
-83
-131
-43
27
5
-31
-35
-11
11
31
-93
-101
-59
-47
-43
-61
139
3
-27
-43
-25
-7
31
-63
-107
-69
-43
-41
-61
17
11
-33
-29
-27
-27
-119
-87
-29
131
15
133
-31
-19
13
21
-9
-89
-93
-41
-29
-53
-71
-105
-31
21
3
-27
-31
3
9
33
-77
-92
-39
-37
-41
-61
-103
-47
29
133
-15
31
39
-79
-91
-61
-29
-89
-67
45
35
-7
-27
3
21
69
-37
-43
-13
-25
39
41
10
-9
17
18
65
19
-23
-13
-7
137
177
-5
35
57
51
-83
-71
-19
-17
-11
-33
-87
-1
34
-7
-69
-41
53
33
23
53
83
-21
1
19
-3
-55
-49
55
35
43
11
15
-29
-53
45
79
53
19
153
57
-61
-41
21
-9
-71
15
194
55
165
31
51
-9
147
163
19
-11
-15
55
19
145
137
-1
133
-11
-53
53
153
9
7
163
47
-61
-13
-9
3
-33
-81
9
185
37
59
-49
-63
-19
-13
-15
-41
-81
-33
31
173
-21
5
-11
-15
-49
-33
71
81
55
47
45
83
135
65
-21
136
45
51
33
3
-25
77
75
31
3
-5
15
65
11
-115
-89
-51
-35
-47
-75
-115
-19
13
-29
-39
-43
-27
-103
-111
-51
-43
-107
-53
13
-7
-23
-27
-15
3
59
-59
-89
-25
-37
-77
-73
33
29
-3
3
-9
145
49
-45
-89
-43
-29
-5
-15
-63
-71
41
23
133
-14
-7
19
53
139
-79
-47
-23
-3
-33
-59
-103
23
54
9
-13
-5
19
-75
-63
-43
2
-83
17
51
25
3
-15
11
47
61
-55
-63
-25
15
-9
-29
-77
-21
57
47
13
37
81
-49
-59
-31
-9
11
-7
-53
-21
47
35
33
3
23
53
79
3
-61
-43
17
17
137
-27
-47
43
197
41
27
49
70
103
51
-39
-13
19
178
105
199
35
51
66
85
82
-27
-25
19
11
-47
35
85
34
55
71
98
-7
-33
1
33
25
130
-33
-3
79
197
163
65
111
-7
-47
-28
163
33
-35
199
81
39
25
31
21
-39
-45
-11
139
-10
-27
-65
25
17
23
39
77
31
-12
-41
81
171
19
3
-21
25
17
103
-3
-57
-31
131
-35
-33
195
45
177
193
99
33
-33
-17
25
-13
-39
199
217
85
95
57
21
-15
61
243
89
71
197
63
47
228
87
59
147
153
59
59
49
131
137
113
104
225
179
145
69
-11
163
193
199
209
91
113
243
219
211
228
23
27
57
65
85
61
15
197
135
109
233
115
163
37
131
15
23
137
75
98
115
159
65
3
33
65
85
82
29
-11
87
117
97
65
93
103
147
99
-1
25
65
195
69
27
-13
113
83
67
225
245
249
25
17
49
61
57
39
-1
53
131
99
75
71
73
115
145
25
-5
21
63
50
177
-13
145
137
9
37
99
83
63
67
89
137
65
-23
11
37
53
51
3
-31
61
111
225
61
107
95
43
19
-29
45
85
99
59
51
65
87
111
135
-15
19
41
165
33
-27
11
101
81
75
121
17
-41
-5
41
161
157
47
59
109
165
-23
-31
163
161
19
-1
-49
65
169
51
193
107
59
7
-5
81
51
21
29
27
65
89
1
135
19
-11
-51
-1
29
19
-51
-17
131
9
-9
-55
-35
56
47
25
11
143
31
93
133
-77
131
135
-31
-57
41
55
47
19
161
55
103
57
-17
-3
53
57
63
45
-11
77
75
71
81
111
-25
25
23
-1
-17
-87
-41
53
-31
-33
-13
19
-75
-95
-64
-43
-37
-55
-89
-59
3
11
-17
-31
-9
-11
43
-27
-87
-51
-31
-21
-33
-45
-69
33
29
-3
-9
-5
145
49
-5
-85
-55
-9
-1
-13
-27
-71
33
59
15
9
3
18
-63
-51
-9
130
5
-15
-77
3
55
19
17
-9
5
47
50
-53
-59
-15
3
3
-12
-57
-29
49
27
15
-9
5
3
74
-33
-69
-27
-13
-15
-13
-47
-55
43
31
9
-1
-7
-7
57
-37
-9
-47
-69
169
169
-25
13
-12
-31
-79
139
-7
133
137
37
43
-63
-53
-27
-1
-63
-14
49
29
-1
-11
50
163
13
1
5
27
-63
-23
-3
11
-13
-39
-63
5
21
23
195
25
-59
-11
-5
-77
23
54
5
129
3
11
-65
-47
-15
133
-13
23
-11
45
-71
-71
-31
-9
-9
-30
-57
-57
167
27
41
-45
-77
-39
-29
-9
-15
-33
-60
201
55
147
133
23
-55
151
11
3
-57
37
185
171
145
89
67
166
19
167
55
99
145
151
33
35
33
49
43
-37
-1
29
169
-19
33
89
57
-33
-37
27
19
77
183
75
217
-15
31
37
15
-43
199
166
27
39
53
103
9
15
35
75
183
57
115
177
-43
129
89
43
51
47
49
227
33
21
-131
-91
-69
-15
-123
-159
-94
-95
-91
-87
-39
-45
-69
-75
-55
-131
-91
-69
-91
-117
-27
-19
-41
-57
-33
-27
-107
-89
-53
-37
-51
-65
-107
-21
-17
-11
-67
-87
-46
-42
-33
-39
-91
-37
-95
-35
-35
-27
-39
-93
-73
21
13
-27
-37
-17
-11
35
-31
-79
-49
-31
-19
-29
-55
-71
3
21
-7
-19
7
-3
173
15
-81
-55
-11
5
145
169
37
-77
-55
-27
-13
-11
-25
-79
-15
37
9
7
-3
2
29
37
-47
-63
-27
-11
-57
-37
49
19
3
135
19
133
67
-27
-49
-13
-7
7
5
-39
-43
53
163
29
17
-5
41
69
23
-47
2
133
13
15
-15
-41
55
57
39
-15
31
39
193
43
-47
-23
2
23
25
-17
-43
31
58
9
3
11
41
61
45
-47
-57
-23
133
-5
-9
-71
-13
34
21
1
3
11
23
51
-77
-55
-35
-31
-11
-29
-65
-55
5
-7
-7
-27
-21
-1
163
-55
-83
-51
-39
-63
-92
7
5
-23
-31
-41
-13
38
-69
-46
-29
-57
-55
-105
-19
-27
11
-73
-53
-45
-37
-49
-105
-31
-29
-31
21
-69
-77
-43
-31
-41
-49
-83
-43
146
-15
-31
-25
-11
-27
39
-75
-97
-47
-33
-21
-53
-85
-57
9
3
-19
-25
-25
-5
51
-75
-33
-25
-33
-61
-77
11
-3
-31
-53
-15
-9
37
-3
-97
-62
-41
-25
-25
-51
-102
-19
15
-39
-25
-23
-13
-73
-83
-42
-19
-39
-37
-81
-43
19
-5
-25
-25
-17
-19
39
-73
-83
-31
-37
-37
-33
-91
-63
-23
-25
-27
7
29
-45
-75
-47
-41
-25
-39
137
-27
-29
-23
-1
43
-33
-85
-69
-35
-15
-29
-51
-81
3
131
-11
-27
-7
-1
33
5
-95
-65
-36
-33
-23
-31
-81
-25
11
-29
-21
-15
-11
17
131
-85
-73
-47
-25
-31
-49
-85
-49
7
-13
-13
-19
-15
-9
37
-79
-87
-44
-15
-29
-49
-73
-61
27
1
-23
-15
-35
9
43
-59
-89
-45
-45
-35
-37
-63
-77
17
11
-7
-41
41
-13
-75
-46
-31
-25
-27
-61
-87
11
1
-11
-13
-25
-9
19
7
-73
-51
-43
-23
-21
-49
-77
-9
15
-1
-29
-25
-19
-7
35
-67
-69
-35
-23
-25
-37
-77
-43
23
1
-29
-37
-13
7
61
-53
-79
-51
-13
-5
-22
-59
-55
23
15
-15
-13
1
5
65
-31
-77
-45
-27
-39
-67
-13
13
3
-17
-11
11
47
7
-79
-45
-13
-13
-29
-45
35
-11
131
27
25
-73
-59
-31
-15
-23
-33
5
3
-17
-59
-75
-39
-29
-83
-47
15
-3
-27
-23
-5
131
55
-33
-97
-13
-89
-9
-31
-13
-7
33
-31
-73
-65
-25
-21
-37
-35
-101
-13
27
-9
-15
47
-49
-1
17
77
177
13
133
153
43
-11
-9
-13
-31
-23
-19
25
-87
-111
-83
-61
-49
-71
-99
-103
-61
-63
-39
-31
1
-69
-126
-83
-45
-41
-47
-65
-105
-25
-13
-25
-49
-25
-13
137
-75
-35
-29
-47
-43
-101
-25
22
-11
-25
-25
-21
-1
7
-87
-67
-37
-29
-27
-35
-75
-27
29
129
-17
-30
-3
19
39
-57
-79
-15
-15
-21
-9
-67
-55
39
-21
-3
3
-39
-25
-13
-23
-31
-73
9
17
-13
-19
13
9
45
7
-75
-37
-21
-15
-15
-23
-75
25
-17
31
29
-75
-41
-15
-9
-7
-9
-19
-60
-63
-15
-27
-63
-35
163
-15
11
-31
-73
-11
-3
133
35
27
79
9
-53
-15
11
19
25
-9
-45
61
53
19
25
29
35
67
51
-43
-19
11
21
31
-1
-39
33
55
29
21
11
21
43
51
-75
25
-3
-15
35
7
-11
-9
-7
21
51
-63
-67
-15
-15
-19
-31
-77
-61
23
-1
-15
-35
-31
-9
29
-63
-91
-57
-35
-29
-41
-75
-93
13
-9
-37
-55
-39
-27
21
-39
-97
-70
-39
-33
-44
-53
-99
1
7
-29
-45
-47
-27
131
-9
-99
-69
-55
-43
-45
-61
-107
-27
-7
-19
-41
-27
-25
-15
149
-105
-89
-59
-31
-37
-39
-89
-45
143
-3
-31
-43
-31
-79
-81
-47
-5
-7
-31
-37
-25
-17
17
-43
-105
-65
-25
-33
-43
-51
-99
-9
7
-31
-46
-27
-19
11
-13
-107
-73
-37
-31
-43
-53
-107
-11
11
-13
-29
-7
3
-95
-87
-36
-33
-49
-43
-97
-37
15
-17
15
-79
-93
-49
-31
-35
-46
-71
-67
-25
-25
39
-59
-85
-61
-31
-21
-31
-81
-5
-39
-45
-23
-11
25
-17
-115
-67
-45
-35
-15
-25
19
-1
-91
-85
-41
-31
-41
-41
147
-15
-45
-31
135
-89
-73
-39
-43
-31
-43
-83
-53
31
5
-27
-5
23
-71
-93
-49
-35
-33
-31
-75
-73
25
5
-25
-31
-27
-9
37
-31
-101
-45
-29
-35
-31
-57
-95
-1
-41
-23
-15
21
-3
-99
-63
-41
-59
-79
-15
19
-25
-41
17
146
-95
-25
-25
-37
-85
-41
149
-13
-31
-27
-19
-21
29
-75
-77
-31
-33
-35
-31
-75
-71
37
-7
-31
-15
-17
-19
37
-55
-79
-27
-27
-15
-31
-65
-85
21
133
-25
-31
-29
-9
35
-23
-91
-57
-33
-27
-27
-55
-93
21
1
-21
-45
-31
-17
15
5
-95
-71
-25
-19
-30
-47
-99
-17
23
-27
-35
-27
-25
2
23
-111
-81
-53
-29
-41
-55
-101
-19
-44
-47
-21
-13
161
-77
-103
-53
-30
-27
-47
-75
-63
23
9
-27
-25
5
-11
59
-21
-73
-21
19
27
137
-7
-29
77
79
33
31
51
41
94
35
-57
-17
9
-6
-99
-21
-5
-45
-57
-61
-57
-29
-39
-125
-113
-64
-73
-81
-77
-133
-67
-63
-55
-43
-21
-11
-109
-97
-59
-45
-45
-57
-94
-63
21
-13
-25
-79
-99
-51
-25
-39
-41
-77
-81
31
3
-23
-35
-23
5
38
-39
-99
-43
-31
-13
-21
-65
-75
15
-33
-19
-5
33
137
-95
-55
-29
-15
-27
-41
-93
-14
19
-15
-31
-19
-9
15
25
-96
-73
-27
-31
-9
-31
-77
-15
33
-15
-27
-13
-9
15
47
-79
-61
-25
-17
-9
-25
-69
-29
162
1
-19
-29
-15
27
-9
-13
-15
17
53
-25
-83
-23
5
-23
-63
15
-15
-11
19
53
29
-71
-45
4
9
-1
-15
-63
19
51
19
-5
-5
11
49
61
-41
-47
-5
5
2
-1
-49
5
57
41
9
-1
-9
-29
-53
-13
-99
-65
-13
-45
-33
-9
-101
-41
-17
-27
-23
29
-93
-109
-49
-29
-89
-39
-51
4
141
-19
-13
-39
-23
-39
-47
-89
-53
31
-13
-13
25
-83
-83
-37
-29
-31
-43
27
-25
3
33
-41
-15
-27
-29
-41
25
-5
-107
-63
-17
-17
-15
145
23
-95
-71
-23
-15
-25
-47
-89
-31
35
-11
-23
-29
-25
131
41
-73
-85
-35
-27
-76
-67
35
-3
-29
-3
35
-47
-21
-21
129
-39
-47
-25
-17
-59
-29
-45
-103
-31
-39
-23
-13
17
-1
-31
-55
-91
-31
39
-13
-23
-27
145
-101
129
-31
-51
-81
-43
173
-41
-15
3
177
-51
-15
-33
-63
-71
37
5
-21
133
29
-23
-97
-13
-53
-79
153
33
-25
-77
-29
-73
-25
-5
-15
-41
-77
-25
39
-1
-17
-27
-3
-1
51
-47
-91
-23
-9
-5
-27
-55
5
-25
-27
-27
131
41
-33
-95
-47
-17
-9
-29
-47
-87
33
19
-14
130
39
-21
-15
-95
-1
27
-23
-41
-29
-15
15
21
-99
-63
-29
-53
-69
-7
-39
-33
-25
5
35
-89
-99
-35
-11
-25
-47
39
129
-14
-35
-13
11
70
-25
-64
-1
21
31
153
-5
-25
97
77
51
43
47
77
97
53
-41
-3
23
23
15
-29
33
-31
-53
-40
-25
-119
-51
-45
-57
135
-29
-51
-51
-39
-107
-103
-57
-33
-91
-59
133
-17
-31
-43
-21
-13
31
-79
-95
-47
-29
-59
-93
35
-1
-29
-37
-23
-107
-63
-25
-21
-23
-43
-83
23
37
-13
-35
-5
13
39
1
-101
-61
-27
1
-21
-35
-91
3
37
1
-31
-29
-5
-81
-77
-31
-23
-9
-27
-81
-23
-14
1
39
-79
-97
-29
-33
-63
-49
-13
-33
-3
131
-11
-13
29
-5
-25
-9
145
-85
-55
-3
17
133
53
-3
25
173
-5
137
15
-13
-46
13
193
147
5
39
73
-45
-76
-5
27
-45
-17
61
177
145
1
149
25
83
-25
-55
-9
19
9
-1
-14
-59
192
47
20
1
-1
13
50
3
-71
-41
-13
3
-13
-27
-71
35
25
5
-47
-28
-15
-107
-91
-29
-23
-30
-43
37
-103
-35
-45
-77
-49
21
-7
-45
-49
-31
-19
7
-57
-79
23
-53
-31
-23
23
-45
-103
-63
-23
-29
-97
18
17
-35
-17
-109
-89
-25
-19
-27
-57
-99
-23
-41
-37
-19
-7
148
-99
-27
-35
-47
-93
-33
-31
-47
-27
-11
-115
-59
-19
-45
-51
-77
-25
163
-53
-103
-65
-61
-91
19
134
-23
-59
-29
-13
-117
-81
-27
-27
-33
-61
-99
-5
15
-33
-17
5
7
-103
-89
-45
-19
-25
-45
-93
-21
21
-13
-33
-47
-19
-9
29
-81
-95
-39
-9
-17
-37
-79
-49
23
13
-25
-30
-21
-13
29
-63
-89
-49
-27
-11
-29
-47
-75
7
29
-13
-43
-23
-9
35
-49
-89
-67
-25
-17
-31
-61
-93
3
29
-19
-57
-25
-9
5
-13
-105
-69
-29
-19
-13
25
-11
-43
-41
-27
-1
9
-83
-39
-35
-27
-85
-33
19
9
-23
-45
-26
-7
41
-61
-103
-43
-25
-21
-43
-77
149
-33
-47
-19
-1
161
-39
-121
-65
-85
133
21
-31
-41
-11
-15
-89
-63
-23
-17
-28
-47
-85
-11
155
-5
-13
-28
-13
13
11
-89
-7
-17
-41
-83
-15
45
19
-27
-53
-9
151
27
-77
-109
-39
-15
33
165
-64
-15
21
21
-23
-109
-77
-45
-37
-29
-43
-85
-10
21
-13
-29
-43
-25
-115
-85
-43
-15
-31
-41
-103
-15
33
-9
-43
-61
-31
18
9
-95
-101
-33
3
-27
-53
-85
-39
51
21
-11
-21
3
165
67
-13
-45
-9
35
43
-11
71
79
163
21
37
23
-19
-7
-21
-83
-105
-1
1
-57
-77
-59
-79
-27
-71
-55
-39
-21
-7
-129
-93
-33
-55
153
-11
-45
-46
-35
-25
23
-63
-23
-35
-29
-49
-35
151
-39
-101
-71
-29
3
-88
-3
29
-11
-25
27
-5
-99
-75
-15
-47
-89
5
47
17
-37
-35
1
-77
-105
-25
-29
167
-79
-91
137
-29
-57
-23
49
27
-13
-25
-13
7
43
-29
-87
-49
133
15
-55
27
51
11
-23
5
129
51
3
-79
-53
9
29
3
-23
-61
25
71
19
-9
145
35
49
25
-51
-45
-5
21
5
-1
-31
9
65
41
11
-5
147
149
55
-37
-45
-17
23
13
129
-29
-13
81
59
-1
-11
3
45
59
-31
-73
-25
19
17
-19
-31
-33
67
23
-1
-25
-13
11
39
-19
-75
-57
-23
3
-19
23
39
-7
1
165
-13
-99
-7
-23
-5
41
-17
-39
-33
-25
15
3
-115
-83
-27
-29
-35
-47
-91
-43
21
1
-33
-39
-47
-31
17
-92
-99
-59
-27
-35
-45
-89
-79
-41
-51
-31
-23
15
-79
-125
-69
-23
-35
-57
-73
7
-43
-53
-46
-29
147
-47
-111
-91
-31
-37
-45
-63
-101
1
29
-1
-57
-45
-31
15
-23
-110
-109
-37
-27
-43
-43
-95
-11
-53
-43
-29
-9
-89
-43
-44
-79
-13
-43
-47
-35
-25
19
-75
-91
-61
-41
-21
-41
-89
-61
25
-1
-29
-17
163
-65
-121
-71
-27
145
31
-17
-41
-35
-23
153
-29
-111
-73
-33
-11
-87
-9
-51
-45
-39
3
-15
-95
-89
-40
-29
-29
-29
-79
-25
33
-1
-27
-13
15
-67
-105
-55
-31
-27
-37
-67
-69
-31
-43
-99
-57
-19
-12
-29
-67
-59
27
153
-21
-14
35
-27
-7
-79
-1
163
-11
-31
-23
-15
151
-78
-15
39
145
-29
-41
-13
-1
35
-63
-89
-43
47
11
-15
-35
53
-77
-93
-57
-5
31
37
-11
-39
-19
-11
-94
-63
-15
5
25
165
-11
-31
-25
-9
59
-59
-26
5
41
147
-13
11
21
-35
-17
-5
-11
-62
-29
53
15
-13
-35
-33
-11
47
-75
-105
-47
-13
-11
-31
-99
-47
47
11
-23
-39
-13
-13
33
-49
-105
-63
-25
-13
-21
-55
-65
29
23
-12
-33
-25
-28
39
-9
-119
-69
-17
-12
-11
-43
-99
9
59
-11
-31
-33
-17
31
17
-105
-75
-15
-10
-15
-31
-83
-11
45
8
-13
-31
-21
7
39
-64
-85
15
-1
-27
-7
225
87
41
35
115
55
27
-11
-19
73
49
11
-69
-139
-97
-57
-41
-67
-85
-111
-11
-3
-33
-76
-65
-45
-127
-107
-49
-45
-37
-45
-103
-27
143
-11
-41
-47
-47
-13
9
-112
-107
-55
-15
-29
-31
165
3
-21
-59
-107
-61
51
15
-23
-39
-27
-15
31
-49
-83
-45
-15
-3
-17
-47
-77
35
-25
-23
-11
-85
-67
-39
-15
129
35
7
-27
-27
-15
147
147
-27
-21
-75
-5
55
17
-13
-37
-11
149
37
-67
-93
-44
61
147
-13
3
171
-39
-91
-45
1
5
-47
59
41
19
139
-75
-49
-5
135
-55
39
145
-3
7
53
37
-75
131
-45
35
75
55
147
-7
57
-45
-77
-21
17
-42
-15
1
129
-69
-27
3
-53
47
31
-5
167
-19
-89
-61
-3
25
27
5
-25
-37
-111
-84
-61
-25
-23
-51
-103
-41
153
1
-47
-53
-42
-19
27
-93
-31
-37
-45
31
-7
-49
-57
-47
-23
135
-97
-111
-77
-41
-29
-53
-77
-75
17
7
-31
-55
-47
-31
143
-43
-117
-89
-40
-64
-91
129
-9
-15
-51
3
-9
-37
-91
-27
19
-3
-47
-13
3
-99
-101
-59
-33
-33
-45
23
131
-37
-57
-31
-89
-137
-29
-35
-89
-67
27
7
-27
-55
-13
-21
27
-43
-117
-73
-77
-19
-53
-43
-25
145
-15
-115
-33
-15
-1
-83
-91
-64
-45
-51
-19
-60
35
27
-21
-49
169
-60
-113
-65
-33
-61
-63
2
-19
-103
-73
-7
7
-27
-19
-23
-23
-29
-13
-91
-7
-23
-59
-47
149
27
9
-29
-31
-19
35
-41
-21
35
-29
47
-31
-103
-83
-35
1
-9
-29
-81
15
45
7
-15
-29
129
31
147
-101
-75
9
47
-31
31
-61
-89
-53
-7
-5
-17
21
17
-5
-30
-35
-25
31
-61
-95
-71
-25
-21
-11
-57
-79
33
19
-25
-41
-45
-9
47
-69
-25
-51
-87
17
33
-13
-41
-35
-15
-97
-85
-49
-13
-7
38
133
-21
-28
-31
-7
27
-95
-85
-47
-29
-11
-23
-79
-30
171
25
-1
-35
-11
19
83
-31
-63
-7
33
57
163
-7
-1
63
31
39
47
83
-9
-71
-37
-27
-11
-29
-57
-79
-9
-13
-33
-65
-70
-53
-30
-58
-121
-43
-47
-67
11
-31
-45
-63
-39
131
-29
-115
-109
-27
-39
-93
-39
49
-3
-41
-53
-31
-75
-99
-45
-17
-57
11
-15
-29
-35
-19
29
-55
-87
-53
-33
3
-5
-51
-59
43
35
-3
-31
-23
-1
43
-65
-37
-39
-67
25
51
9
-25
-17
-13
33
13
-87
-1
-15
-3
-25
-31
-81
-63
-39
5
-83
-46
-9
133
5
-37
-59
55
37
7
-7
69
-23
-5
-39
-37
65
59
15
-17
9
21
55
23
-77
-43
-11
3
-45
45
17
3
-3
27
51
-39
-57
-19
137
25
19
181
141
-5
3
33
71
-45
-61
-23
9
153
8
-53
-33
85
45
7
-19
61
-49
-29
131
13
-51
-55
43
-11
-29
-13
29
-3
-81
-19
-5
-21
-85
23
37
-17
-29
-43
-39
-115
-10
-25
-11
45
-5
-38
-39
-27
-15
7
-105
-95
-31
-33
-89
-45
23
11
-15
-37
-43
-27
23
-73
-109
-21
-23
-73
-87
31
147
-29
-23
29
-59
-111
-75
-45
-15
-29
-73
-91
33
11
-19
-51
-46
-35
-3
-27
-113
-89
-51
-27
-23
-37
-99
-5
25
3
-14
-39
-37
-5
15
-113
-103
-37
-35
-25
-43
-3
-31
-45
-94
-107
-49
-31
-15
-21
-77
-43
27
-7
-13
-37
-37
-23
34
-61
-87
-69
-61
-11
-37
-49
-61
20
29
-11
-43
-45
-29
41
-47
-105
-75
-43
-15
-35
-53
-77
17
37
-5
-31
9
-9
-93
-91
-49
-29
-25
-19
-75
-13
35
15
-27
-51
-31
-5
5
-87
-83
-41
-23
-23
-35
-69
-23
37
19
-23
-31
-27
-21
21
-95
-89
-53
-29
-11
-17
-51
-49
25
18
-21
-27
-43
-19
39
-65
-103
-61
-41
-11
-25
-63
-73
35
17
-15
-25
-37
-13
19
-43
-95
-73
-57
-29
-17
-31
-75
11
19
13
-19
-29
-14
17
-21
-97
-85
-47
-21
-23
-35
-69
9
49
17
-23
-23
23
-81
-25
-21
-29
-75
13
13
-9
39
-69
-91
-73
-19
-15
-21
-71
-41
39
31
-9
-43
-15
9
38
-53
-19
129
-19
-43
-5
-12
-13
37
-21
-89
-73
-35
-27
-15
-27
-79
3
39
21
-13
-27
-29
17
21
-9
-21
41
17
-21
-37
-33
7
17
-107
-93
-41
-23
-27
-21
-79
-59
-3
-29
-39
-11
39
-70
-45
-1
-27
-43
-61
13
37
-9
-29
-25
-13
31
-30
-37
-17
-11
-59
-63
19
38
7
-23
33
-11
-95
-63
-25
17
5
3
-39
49
221
67
41
39
41
87
-23
21
27
51
157
-29
-5
61
43
-13
-35
-37
-31
19
-99
-119
-80
-71
-55
-61
-103
-87
5
-15
-39
-51
-61
-35
11
-84
-127
-77
-59
-25
-43
-65
-77
27
19
-15
-45
-33
-15
-111
-25
-21
-51
-87
129
-15
-39
-17
-87
-41
-35
-13
-23
-79
-12
37
21
-3
-39
-13
-1
23
-95
-93
-21
-43
51
23
5
-27
-23
133
51
-59
-97
167
31
18
-27
-93
-61
-19
-27
-61
41
49
21
6
-9
131
43
29
-63
-53
3
15
59
18
139
-11
-3
-61
-61
-25
-13
9
-9
63
51
21
-1
11
25
59
-21
137
7
2
-29
-17
75
59
37
27
83
-7
-65
-23
2
161
19
-13
-29
66
65
47
7
19
23
65
5
-67
-31
-3
26
11
-3
-47
49
75
34
13
7
15
49
25
-73
-59
-31
-5
-1
-5
50
41
19
-19
7
-64
-81
-47
-25
-21
-27
-64
-35
51
23
-21
-13
35
-77
-105
-67
-37
-25
-15
-63
-57
35
11
-17
-31
-25
-31
31
-49
-125
-73
-47
-29
-23
-59
-81
-5
145
1
-29
-37
-29
11
-31
-99
-93
-49
-31
-31
-45
-93
-13
33
-5
-29
-33
-29
-13
-1
-113
-105
-69
-45
-99
-27
35
-37
-39
-7
17
-93
-105
-71
-31
-25
-38
-91
-69
35
13
-17
-37
-29
-21
27
-67
-115
-63
-47
-27
-27
-71
-73
15
19
1
-33
-44
-31
7
-39
-101
-89
-49
-29
-29
-37
-93
-3
33
-35
-25
15
-3
-99
-89
-47
-39
-13
-43
-83
-13
33
7
-19
-39
-25
-9
15
-99
-93
-55
-27
-27
-41
33
11
-37
-7
17
-61
-41
-15
-67
-37
-29
31
-55
-109
-19
-19
-55
-79
29
43
-9
-43
-13
-3
-13
-19
-31
3
19
-51
-43
-17
-37
-77
-31
31
11
-9
-21
-33
-13
25
-97
-93
-63
-35
-21
-33
-61
19
-9
-19
-33
3
39
-55
-99
-57
-44
-23
-23
-59
-63
23
33
3
-14
35
-41
-99
-77
-37
-27
-17
-27
-87
19
165
5
3
-26
-23
19
-13
-97
-79
-51
-27
-11
-41
-77
11
29
25
-7
-25
-5
3
23
-69
-67
-21
64
25
7
-5
-21
-7
43
-75
-89
-11
-17
-61
-39
39
33
135
-15
-9
-15
43
-45
-107
-65
-41
-26
-9
-45
23
133
-15
-29
-17
17
-27
-97
-79
-51
-31
-19
-31
-77
3
29
11
-17
-23
-15
-1
-8
-89
-91
-59
-31
-19
-29
37
17
-15
-9
15
-95
-33
-65
-37
45
23
-5
-25
-31
-3
31
-75
-93
-61
-21
-55
-55
59
51
19
-13
3
19
72
-1
-45
-7
15
45
45
33
-1
102
83
77
51
35
35
67
5
-75
-59
-43
-29
-23
-47
-107
-1
1
-15
-27
-57
-31
-17
-31
-121
-107
-75
-49
-49
-53
-91
-25
15
9
-27
-33
-31
-17
1
-93
-99
-67
-45
-31
-47
-77
-29
27
25
-11
-23
-25
-25
147
-65
-95
-71
-27
-19
-13
-47
-55
31
27
-9
-11
-27
-21
31
-47
-93
-62
-39
-29
-15
-61
-72
29
37
-19
-3
35
-9
-111
-73
-13
-29
-75
7
167
-3
143
-81
-75
-33
-27
-19
-19
-61
-15
54
27
3
33
-43
-9
-55
-39
51
43
9
-1
-17
-3
-13
-9
51
177
51
-13
-91
-57
-23
5
7
-17
-49
45
65
19
-3
17
15
51
33
-73
-5
17
-1
-49
31
69
35
17
7
5
29
55
-63
-63
-13
9
3
5
-45
7
79
43
33
131
5
15
51
-57
-73
-35
-1
-33
-45
63
139
129
-19
51
-39
-87
-57
-43
-15
-9
45
7
-17
-9
-15
141
-19
-109
-77
-87
13
31
3
-29
-7
5
-107
-85
-61
-46
-33
-23
151
1
-13
-31
9
-95
-45
-39
-45
-73
-69
29
9
-23
-41
-39
-19
25
-77
-49
27
145
-9
-27
-23
-31
-109
-75
-65
-43
-33
-55
-79
25
37
-5
-27
-21
-25
-59
-35
-37
-11
29
3
-17
-21
-37
-11
17
-107
-91
-61
-61
5
-7
-33
-31
-27
11
-73
-47
-43
-31
-67
-63
-7
-27
-17
-29
29
-71
-49
-51
-79
23
19
7
-15
-15
-17
11
-9
-101
-77
-45
-21
-21
-33
-71
3
163
139
-13
-25
-21
5
13
-91
-91
-53
-33
-23
-31
-79
-29
35
133
-9
-21
-33
-11
35
-79
-91
-59
-46
-28
-45
35
15
129
-21
-17
-15
169
-53
-109
159
-15
-7
-15
23
-19
-95
-67
-27
-81
19
-19
-9
19
-99
-31
-21
-29
-79
-9
33
139
129
-25
-14
-3
150
-91
-93
-47
-29
-29
-15
-63
-39
35
19
3
-11
-25
-11
39
-73
-91
-59
-43
-25
-27
-47
-57
23
21
5
-25
-11
-9
29
-39
-97
-61
-37
-31
-15
-41
31
15
-11
-5
-5
15
-9
-83
-73
-31
-23
-21
-21
-63
5
37
21
-5
-9
-3
5
17
-79
-79
-43
-29
-27
-19
-57
-15
53
27
1
-7
-13
-7
35
-77
-83
-43
-29
-35
-23
-59
-55
47
19
-7
-11
-27
-5
21
-63
-92
-49
-39
-25
-15
-47
-57
45
-25
-15
-13
19
-43
-107
-71
-27
-43
-83
35
33
7
-15
-13
-21
11
-15
-109
-79
-43
-25
-29
-41
-71
11
35
9
-9
-27
-29
-7
9
-101
-91
-53
-37
-40
-17
-64
-15
49
23
19
17
-3
25
77
-44
-43
-1
19
29
51
9
33
99
81
67
49
45
33
79
-29
-64
-61
-45
-29
-37
-62
-75
131
-43
-39
-41
-142
-61
-57
-61
11
-15
-17
-107
-79
-67
-41
-45
-37
-73
-11
35
7
-17
-21
-27
-14
11
-7
-19
-23
-15
38
-73
-89
-59
-35
-25
-31
-43
5
-17
-7
-11
35
-31
-113
-61
-39
-25
-21
-41
-77
163
37
21
-17
25
-11
-97
-75
-21
-13
-64
15
47
19
-3
-13
-11
17
19
-87
-81
-39
-25
-25
-19
-57
-7
57
153
7
-1
-7
-43
-17
-9
-15
-29
-37
59
169
145
137
11
3
183
-47
-11
147
49
3
-63
-61
-5
69
25
-7
23
79
59
-15
-43
-73
-25
-115
-33
-43
165
132
-107
-79
-57
-45
-47
-41
-69
-29
27
-3
-25
-27
-67
-61
-11
-27
-27
-37
11
-77
-117
-75
-57
-43
-81
-14
-41
-133
19
31
-19
-23
-19
-29
129
-9
-111
-91
-55
-47
-45
-41
-69
-27
23
3
-27
147
-57
-47
-41
-25
-69
-25
-21
-33
149
-59
-75
35
27
-9
-25
19
-57
-39
-31
-25
-57
-83
25
37
-13
-15
-15
-23
13
-17
-107
-73
-55
-33
-43
-15
-85
2
31
9
-17
-19
-11
-9
25
-103
-99
-46
-29
-37
-35
-73
-13
55
23
-11
-13
129
-19
21
-87
-95
-61
-39
-47
-25
-57
-37
21
145
-1
-13
-9
-21
33
-51
-91
-75
-47
-31
-39
-45
-57
19
39
-1
-23
-9
-7
11
-29
-111
-71
-31
-35
-39
-25
-71
15
33
137
-11
-1
-3
5
-15
-93
-79
-45
-31
-37
-35
-75
1
-7
-23
-13
11
3
-89
-91
-39
-25
-31
-45
-73
-31
47
23
-1
-13
-11
-11
137
-81
-91
-55
-43
-31
-21
-47
35
3
-27
22
-37
-99
-61
-39
-25
-27
-37
-79
45
47
-1
133
37
-19
-39
-13
-27
13
51
13
19
133
-85
-45
-21
-65
-35
43
145
-11
7
-3
-5
-27
43
21
7
-15
37
-53
-107
-69
-39
-23
-43
-49
-63
19
41
-5
-23
15
-29
-121
-69
-28
-71
17
35
-17
-12
-15
-9
-7
1
-107
-85
-55
-37
-37
-27
-77
5
41
11
21
-1
-3
23
41
-63
-71
-9
21
43
25
-11
161
113
81
57
43
63
51
83
-35
-63
-11
-17
-25
19
-3
-26
-51
-27
-97
-63
-77
-95
-7
5
-29
-31
-37
-45
-9
-27
-63
-51
-35
-55
-95
17
25
131
-13
-9
5
-111
-107
-65
-21
-38
-15
-15
149
-61
-43
-3
21
-44
-97
-57
-29
-35
-53
13
-11
-12
-9
15
-9
-95
-69
-45
-29
3
147
147
27
-83
-15
-1
-19
-61
3
193
31
137
-15
17
-11
23
-41
-25
-19
-25
-45
139
21
53
-57
-97
-17
-31
-15
-11
-27
-31
53
43
25
15
17
137
49
7
-67
-43
-23
7
7
7
-45
59
81
27
39
51
33
-75
-49
-1
133
7
-7
-31
27
79
45
23
25
51
-59
-11
-1
-11
66
41
-7
31
-63
-83
-43
-33
-13
-23
-27
-11
37
-37
-105
-53
-51
-23
-23
-43
-81
153
-23
-21
-5
15
-49
-1
-29
-29
-9
-107
-109
-58
-45
-57
-33
31
5
-13
-13
-9
-25
3
-53
-69
169
7
-17
-27
19
-51
-95
-35
-73
19
149
-25
-103
-99
-5
31
3
-23
-25
-15
-97
-111
-41
-47
-77
-29
47
5
-11
-9
145
-101
-95
-47
-43
-49
35
17
-13
-23
-21
-19
137
-45
-35
-49
-45
-67
25
25
-7
-17
-33
5
-11
-13
11
-107
-81
-39
-43
-31
-47
-93
23
-81
-109
-47
-29
-43
-47
-55
-39
165
19
-23
-21
-59
-41
-29
169
19
-9
-15
-13
-5
17
-27
-33
-31
-23
-31
-81
7
37
145
-9
5
-7
-97
-27
-37
-33
49
11
-15
-25
-9
21
133
-103
-97
-41
-25
-69
-27
45
29
-11
-9
21
-61
-99
-64
-37
-5
3
159
-31
-97
-71
-23
-35
-73
147
-5
17
17
-3
-99
-71
-27
-23
-29
-37
-9
-91
-99
-29
-27
-31
-47
-63
-11
49
23
-33
-11
-5
-1
165
-83
-107
-59
-41
-37
-35
-63
-37
39
129
-17
-19
-11
-9
21
-49
-107
-75
-39
-31
-31
-41
-71
11
35
3
5
17
-25
-111
-107
-51
-30
-83
5
-19
-11
-1
137
-5
-43
-31
-43
-73
-17
135
-11
31
-55
-63
-13
7
15
87
209
177
187
105
133
-57
-17
-9
133
-11
39
-47
-35
3
-65
-141
-115
-63
-49
-63
-81
-100
-17
145
-19
-43
-35
-25
-139
-105
-61
-57
-58
-47
-79
-25
35
-7
-15
-21
-27
-5
-9
-101
-95
-55
-27
-83
-31
179
27
-21
5
29
-67
-110
-75
-41
-23
-45
-47
-47
-5
-11
23
-53
-111
-67
-27
-27
-25
-47
-61
51
54
-19
131
-3
-14
-101
-81
-41
-25
-31
-31
-61
3
55
145
-7
-5
10
133
15
-89
-83
-27
-31
-15
7
159
-67
-95
-59
-25
-13
-33
-37
-31
193
39
5
7
135
19
57
-41
-89
-55
-15
-9
-15
-43
-37
197
67
9
141
25
19
57
3
-79
-41
-14
-3
-1
-17
-39
155
63
37
145
17
25
17
39
-57
-5
13
-1
-39
11
23
17
25
167
61
-63
-85
-21
-11
-13
201
57
151
25
49
-43
-97
-41
-17
-27
-27
57
39
7
-17
131
4
31
-19
-41
-31
-77
133
-103
-105
-43
-45
-43
-55
-95
-25
33
11
-29
-31
-13
5
-15
-123
-111
-61
-43
-55
-63
-83
-13
-15
141
-89
-123
-41
-51
-29
-27
-15
-111
-75
-55
-43
-46
-61
-69
-11
-25
-19
133
23
-15
-126
-107
-57
-37
-57
3
39
-15
-17
-23
-9
9
-9
-111
-110
-64
-39
-47
-49
-75
-33
39
-7
-9
-14
-17
-31
15
-99
-101
-45
-39
-79
5
-29
-33
-15
-3
33
-73
-117
-63
-44
-43
-47
-71
-64
-21
-33
-9
-13
3
-43
-123
-67
-41
-43
-31
-63
-77
19
33
7
-11
-15
-3
29
-15
-129
-91
-61
-27
-93
-9
41
139
-19
-31
-13
13
9
-109
-101
-49
-31
-39
-35
-65
-27
45
17
-7
-5
-5
7
37
-79
-93
-61
-51
-29
-41
-69
-55
167
25
-5
7
-25
-71
147
47
-3
-27
-23
-31
-35
25
33
15
-17
-15
-3
11
7
-101
-77
-52
-41
-77
-17
49
146
5
-7
-11
11
21
-107
-104
-55
-29
-19
-45
-81
-21
47
23
-15
-41
-7
3
165
-73
-117
-61
-29
-23
-37
-49
-53
-5
-13
131
139
29
-41
-33
-57
-73
146
47
23
-9
-3
7
31
3
-91
-87
-39
-15
-23
-35
-77
11
61
27
-1
-29
3
25
15
-95
-99
-31
-31
-37
-37
-73
-21
57
17
-7
-23
-13
-1
33
-69
-91
-61
-41
-31
-29
-65
-51
35
149
-9
-19
-15
-9
35
-61
-117
-71
-37
-23
-39
35
37
-3
-45
-25
-39
-43
-77
135
-15
-7
-5
-1
-97
-79
-45
-23
-47
70
37
39
51
-25
-43
145
25
27
147
-11
153
2
33
-81
-11
-71
-97
13
-47
-45
-28
-39
19
-71
-49
-57
-69
-93
13
27
-13
-21
-25
-9
-13
-31
-111
-93
-61
-47
-41
-47
-95
-19
29
9
-9
-27
5
-111
-107
-37
-51
-85
167
-9
-39
-37
-45
41
149
-107
-65
-31
-13
-21
1
-17
5
7
37
-5
-106
-87
-35
-25
-19
-27
-79
5
59
155
7
3
17
39
5
-91
-101
-41
-15
-33
-29
-57
-9
201
35
3
3
11
7
34
-69
-89
-31
-19
-23
-17
-57
-37
64
51
19
19
137
19
57
-49
-93
-41
-13
129
-9
-35
-43
75
83
31
41
-103
-41
-5
147
87
165
19
61
29
-76
-57
-19
-9
-35
31
71
45
19
39
51
-77
-85
-33
-3
-13
-35
-71
-21
77
41
7
-17
-9
17
35
-83
-115
-59
-23
-21
178
25
-5
-27
-13
-118
-71
-51
-41
-47
-61
-79
31
11
-9
-43
-35
-15
7
-33
-117
-97
-45
-75
-99
13
171
-11
13
-9
-125
-111
-73
-29
-41
-67
-103
-23
33
3
-29
-37
-15
-15
7
-109
-123
-79
-49
-47
25
11
-27
-21
31
-85
-59
-46
-43
25
3
-33
-33
-5
23
-105
-109
19
29
-7
-31
-25
1
7
-9
-123
-95
-51
-47
-47
-63
53
-5
-21
-11
-17
-1
25
-109
-99
-75
-47
-29
-55
-99
-39
45
9
-31
-31
-13
5
45
-103
-121
-67
-17
-31
-43
-75
-45
53
27
-11
-27
-9
-5
29
-61
-115
-87
-39
-19
-35
-64
-65
38
35
131
-25
-3
11
45
-37
-121
-89
-39
-15
-45
-63
-83
33
-13
-9
11
21
-15
-111
-94
-55
-33
-37
-44
-75
-25
43
23
-13
-25
-11
-13
33
-81
-113
-57
-31
-45
-43
-81
-39
57
35
-9
-31
-9
129
31
-79
-117
-53
-35
-39
-31
-68
-47
43
145
131
-10
-15
7
26
-55
-107
-79
-58
-29
-29
-67
-87
165
34
5
-29
-11
7
31
-27
-123
-87
-53
-39
-35
-63
-85
21
51
-1
-23
-11
-13
11
13
-111
-91
-63
-37
-35
-41
-87
-13
193
17
-11
-21
-5
21
41
-105
-105
-45
-23
-21
-39
-71
-19
75
33
11
3
5
17
59
-63
-33
-23
-27
-53
-61
52
57
7
-1
17
-29
-109
-63
-33
-9
-25
-49
49
3
-9
1
9
163
-17
-97
-85
-29
-17
-35
-41
-91
1
47
-19
-5
-3
13
-101
-95
-57
-43
-37
-45
-93
-33
49
19
-25
-27
21
-65
-51
-45
-58
-92
23
-17
-33
-11
3
47
-62
-125
-55
-47
-33
-37
-57
-63
37
41
133
-15
18
-7
-103
-67
-13
-9
-37
199
53
105
73
-49
-35
15
27
39
1
-67
17
65
21
2
-29
-23
5
3
-131
-139
-83
-63
-71
-65
-109
-71
19
-13
-29
-47
-37
-30
27
-107
-141
-93
-49
-29
-57
-89
-77
23
21
-15
-13
35
-67
-131
-85
-53
-35
-49
-69
-91
36
35
131
-13
-27
-29
-115
-89
-59
-39
-35
-57
-95
23
54
9
-17
-15
-9
23
145
-103
-91
-39
-21
-19
-41
-87
9
57
27
-3
-13
137
153
-93
-39
-59
-23
61
39
136
5
-101
-53
-31
-19
-19
-55
-7
3
19
49
-23
-93
-1
-19
-77
177
63
37
133
11
139
-105
-77
-33
-7
-1
167
75
167
19
45
57
-87
-87
-39
-11
-1
-15
-47
-15
77
177
17
15
25
35
71
-59
-91
-33
-11
-1
-11
-39
-35
41
17
35
-17
-13
-3
-19
-62
57
63
35
137
-99
-3
189
161
-13
-13
139
33
-23
-30
183
23
-15
-15
-9
-7
25
-109
-123
-75
-47
-47
-39
-79
-77
41
17
-15
-28
-27
-7
33
-71
-119
-85
-53
-33
-53
162
35
-45
-13
15
-39
-126
-97
-61
-43
-47
169
-29
-7
17
5
-115
-37
-47
-63
-101
-27
45
5
-15
-27
-15
-1
33
-109
-115
-77
-51
-37
-53
-81
-69
21
1
-11
-29
53
-93
-105
-91
-55
-27
-44
-73
-71
33
33
2
-15
-15
5
31
-47
-115
-83
-53
-37
-39
-55
29
3
-25
-33
-11
-91
-103
133
59
-23
19
-103
-103
-53
-35
-41
-53
-87
21
139
43
-87
-45
-25
-47
-77
-51
39
17
-11
-21
45
-43
-117
-91
-33
-27
-35
-49
-93
137
-21
-11
9
41
-25
-103
-101
-55
-25
-43
-55
-91
2
51
145
-27
-11
11
11
23
-105
-87
-55
-41
-43
-37
-83
-14
59
37
-5
-9
-15
5
27
-87
-109
-59
-45
-30
-35
-85
-45
55
37
-11
-31
-15
19
38
-65
-105
-55
-45
-37
-37
-65
-65
47
19
11
-13
-23
-11
43
-31
-109
-67
-19
-55
-77
57
53
21
-9
3
11
47
145
-111
-69
-39
-25
-29
-31
-77
38
67
27
129
-1
135
153
-87
-47
-37
-15
-29
55
19
-7
-15
11
19
43
-93
-115
-67
-29
-33
-43
-78
-45
58
35
-13
-27
3
3
38
-73
-123
-77
-29
-27
-35
-59
-69
35
39
-1
-19
-9
131
51
-31
-133
-95
-43
-15
-35
-62
-83
-7
-15
-105
-97
-61
-37
-49
-45
-84
-3
47
23
-93
-101
-35
-17
133
-3
-51
13
113
84
65
209
125
-19
147
27
59
43
-7
-41
-21
-75
-37
-117
-79
-75
-77
-99
-103
9
11
-19
-41
-31
-30
9
-47
-149
-115
-67
-47
-57
-64
-107
-3
37
-7
-35
-31
-7
19
3
-123
-101
-51
-29
-37
-73
-101
9
-23
-23
-23
13
31
-107
-97
-71
-39
-37
-47
-83
-45
9
-27
-19
21
39
-91
-117
-71
-43
-25
-39
-61
-63
143
-5
169
-25
-115
-67
-49
-53
-73
55
43
9
-15
-1
7
39
-1
-115
-77
-47
-23
-7
-39
-83
17
63
21
3
3
19
33
35
-105
-15
-13
-33
-77
-7
73
39
7
-9
11
21
41
-77
-73
-47
-21
-5
-23
-59
-21
79
50
19
7
17
35
89
-53
-87
-55
-21
9
-1
-47
-30
201
67
151
149
-93
-45
-15
5
-9
-15
-45
51
75
53
23
27
161
61
23
-57
-63
-9
11
-1
-29
-63
11
27
-79
-77
-39
-41
-77
-31
67
31
1
-11
3
139
43
-77
-105
-51
-47
-37
-37
-79
-57
39
23
-12
-19
-27
-7
37
-49
-117
-81
-69
-45
-37
-65
-97
25
27
-11
-27
-25
-29
-139
-41
-45
-73
-101
-8
39
-1
-29
11
-15
-137
-113
-64
-53
-47
-53
-101
-41
41
-29
-35
-17
137
-101
-111
-73
-61
-45
-55
-95
-63
161
17
-53
-53
-85
-93
11
23
-65
-18
-119
-63
-43
-123
1
162
-11
147
149
-64
-45
-43
-55
-91
-45
33
149
-9
-23
-13
-13
37
-67
-123
-75
-49
-81
-71
17
25
-1
-21
-17
-19
-113
-41
-33
-59
-83
-11
21
-13
-35
-39
-53
-107
5
54
27
-25
23
149
-89
-35
-31
-23
-81
-27
59
29
5
-7
-7
133
49
-69
-123
-71
-57
-45
-33
-87
-51
163
41
7
-27
6
-3
49
-45
-121
-79
-51
-59
-77
21
39
-9
-17
-7
3
-123
-91
-47
-23
-39
-51
-75
9
37
7
-17
-11
-5
33
21
-109
-90
-61
-37
-25
-46
-89
-5
59
25
15
-27
-71
-23
-39
-39
21
-7
4
133
31
-57
-37
-67
133
-115
-31
-57
-89
-5
-120
-41
-65
-95
-7
51
131
-117
-71
-37
-51
-63
-85
-47
49
23
5
25
-79
-115
-39
-39
-67
-55
55
11
74
131
-69
15
33
19
-15
71
115
199
63
57
51
91
39
-78
-29
-35
-69
-107
-21
-7
-33
-127
-143
-106
-61
-55
-83
11
-29
-31
-21
-25
133
-103
-123
-67
-63
-71
-49
-93
-69
21
27
-3
-11
-27
1
34
-65
-119
-85
-61
-45
-53
-75
-81
33
33
9
-21
-11
5
35
-37
-129
-89
-59
-41
-85
27
41
145
-5
-13
-1
25
-97
-63
-45
-25
-41
35
25
3
-7
5
133
17
-87
-103
-77
-29
-27
-47
-67
-31
55
53
11
-11
5
19
43
-85
-101
-65
-33
-31
-43
-61
-45
47
49
23
3
15
11
-95
-61
-43
-25
-19
-53
-73
43
-5
7
143
51
-5
-85
-83
-37
-7
-25
39
73
41
27
6
150
56
37
-63
-57
-41
-9
-9
-13
-57
33
51
71
35
161
39
39
65
-31
-83
-47
-11
-11
-19
81
63
35
19
40
33
195
-45
-87
-49
-27
-19
-13
-53
-31
59
59
161
15
23
20
51
-19
-93
-75
-39
-23
-29
-39
-71
11
59
31
129
5
-7
43
-25
-109
-97
-61
-33
-57
-65
-97
-11
35
149
-23
-13
3
7
-5
-103
-115
-89
-55
-57
-39
35
19
131
-27
-23
-27
23
-91
-115
-67
-61
-57
-61
-93
-73
23
21
-15
-37
-39
-9
17
-65
-119
-78
-65
-61
-53
-73
-79
25
-37
-19
-12
145
-39
-123
-105
-59
-39
-45
-63
-109
1
23
3
-23
-17
-5
161
-17
-115
-37
-45
-53
-107
3
-23
-25
-13
17
19
-109
-105
-77
-63
-45
-57
23
11
9
-19
-13
-11
163
-89
-103
-81
-51
-59
-55
-77
-63
27
23
137
-15
-9
-15
168
-51
-111
-81
-65
-47
27
15
-13
-11
-3
33
-23
-101
-95
-71
-53
-45
-55
-85
25
43
15
-11
-9
-9
11
17
-105
-103
-65
-55
-51
-49
-95
-27
47
25
-1
-15
3
15
165
-97
-109
-79
-37
-45
-35
-101
-35
27
27
3
-7
-10
11
35
-91
-107
-75
-61
-39
-46
-71
-63
17
25
13
-3
-9
3
43
-53
-81
-89
-75
-45
-41
-51
-87
19
35
23
-13
-11
3
151
-14
-111
-101
-67
-39
-43
-61
-94
9
167
21
3
-11
-3
29
-1
-97
-83
-69
-55
-43
-43
-87
-17
164
23
1
-15
-13
19
23
-93
-103
-73
-43
-31
-37
-93
-61
53
35
9
-11
-5
15
173
-57
-113
-69
-65
-39
-29
-63
-57
31
35
27
3
131
3
43
-15
-95
-79
-63
-41
-21
31
43
29
6
5
9
39
137
-101
-87
-51
-49
-28
-51
-77
9
39
17
11
-15
-5
18
31
-101
-91
-67
-61
-91
-33
43
31
-9
-3
-111
-85
-53
-55
-57
-89
-63
41
29
1
-11
-23
-5
41
-65
-111
-83
-61
-47
-47
-73
-94
33
27
13
-14
-5
-13
34
-33
-105
-91
-55
-41
-45
-61
-91
27
192
35
11
29
37
65
39
-56
-47
3
13
21
31
-29
57
103
79
67
55
171
63
185
-61
-87
-49
-59
-111
-63
3
-14
-39
-49
-41
-35
147
-103
-137
-103
-87
-121
-85
5
1
-23
-39
-29
-15
19
-99
-67
-59
-63
-77
-89
7
13
2
-13
-21
-25
23
-29
-123
-107
-73
-47
-59
-67
-103
5
37
5
3
-7
-12
31
-3
-107
-93
-55
-51
-39
-53
-91
-24
167
33
11
-1
-5
135
43
-63
-67
-55
-43
-31
-37
-63
-45
37
35
147
130
-3
27
51
-47
-87
-61
-43
-21
-28
-49
-59
54
55
41
-5
11
31
49
-27
-95
-67
-35
-31
-31
-55
-65
39
9
21
11
-73
-77
-49
-29
-29
-33
-75
23
55
35
19
-5
9
23
37
-79
-69
-51
-19
-29
-43
-77
-7
51
37
37
21
9
25
57
-63
-64
-37
-29
-13
-28
-43
-15
43
33
33
-47
-15
5
-3
2
-15
-9
7
-21
-56
42
35
145
39
47
15
-73
-45
-29
31
139
15
7
11
34
-81
-89
-45
-53
23
139
7
-12
-29
-7
-111
-97
-59
-87
27
11
-1
-27
-21
-53
-115
-69
-61
-78
-107
147
-5
3
-23
-29
3
-109
-95
-87
-61
-15
149
-11
3
11
-101
-109
-83
-71
-59
-69
-113
-55
-9
-15
-25
-101
-111
-95
-63
-61
-61
-79
-77
33
141
-9
-15
-13
-13
37
-65
-117
-83
-53
145
19
-19
-15
-108
-93
-65
39
135
-7
137
1
-99
-91
-79
-31
23
15
133
-1
-11
-3
159
-91
-105
-79
-59
-45
-53
-83
-65
49
15
7
-15
-9
3
49
-64
-103
-83
-59
-47
-45
-57
-85
31
21
9
3
-15
-1
31
-33
-97
-77
-59
-47
-87
17
37
7
-21
15
15
-105
-92
-43
-101
-15
35
11
7
3
-13
19
37
-95
-91
-75
-63
-33
-60
35
33
13
-13
5
13
29
-79
-109
-53
-47
-57
-79
-5
-11
-1
-47
-49
-47
-43
35
-7
11
-91
-85
-71
-47
-41
-47
-89
9
137
9
19
31
163
-85
-89
-59
-27
-89
153
145
-1
3
17
163
-79
-89
-39
-33
-53
-55
55
47
145
15
63
-43
-89
-63
-41
-43
-39
-47
-73
31
35
5
9
-7
-9
-93
-63
-57
-39
-31
-53
-93
27
-11
-11
133
147
145
-89
-95
-63
-45
-41
-53
-89
-11
167
21
3
-78
11
-5
7
135
-95
-61
-47
-49
41
41
31
91
31
-33
33
39
101
93
75
49
39
39
-91
-55
-57
-73
-125
-43
145
-15
-35
-31
-125
-69
-103
-65
133
-13
-7
-15
-95
145
-17
-11
-15
51
-37
-97
-79
-71
-47
-31
-57
-93
23
35
19
-9
7
139
-111
-89
-55
-45
-51
-47
-109
-11
49
19
21
163
-95
-85
-53
-49
-37
-57
-69
-31
49
21
133
135
139
135
49
-65
-87
-61
-47
43
23
21
13
11
5
-59
-75
3
-91
-61
-39
-22
-25
-45
-93
23
53
31
15
18
23
37
43
-75
-67
-37
-29
-23
-17
64
43
49
35
21
-59
-61
-27
-27
-9
-11
-43
51
49
161
47
39
83
-27
-75
-33
-13
-15
-14
-45
-45
67
64
37
25
163
37
71
-5
-75
-55
-33
-35
-25
-30
-65
41
50
35
5
-79
-69
-55
-45
-33
-33
-95
2
31
1
17
19
25
-79
-97
-61
-47
-64
-43
41
9
-1
7
37
-89
-107
-71
-61
-61
-53
-87
-59
-11
153
-67
-73
-87
-11
-19
-5
-3
-116
-92
-64
-57
-53
-69
-5
-15
-15
-13
15
-5
-105
-105
-69
-59
-55
-63
-101
-29
17
135
-5
-15
7
-9
27
-73
-107
-61
-55
-59
-57
-81
-63
-9
-9
1
-57
-79
-93
19
19
-11
-21
-5
1
-57
-55
-59
-63
161
-3
-21
-8
129
-59
-47
-95
-15
35
3
-5
-11
-1
9
141
-77
-87
-67
-47
-51
-45
-71
-47
35
19
7
-5
-5
131
47
-67
-101
-61
-45
-45
-47
24
19
-3
-19
3
9
37
-49
-107
-77
-63
-39
-47
-69
-75
25
21
-3
-13
31
5
-95
-75
-51
-45
-39
-47
35
13
3
19
25
-81
-57
-9
-15
7
19
-105
-59
-43
-79
17
-39
-29
-40
165
-7
-93
-65
-45
-37
-33
19
49
25
7
17
21
35
23
-81
-85
-45
-39
-47
-29
-79
-29
39
19
13
-9
19
15
41
-71
-105
-63
-37
-45
-53
47
23
133
5
-103
-67
-53
-43
-57
-77
-65
-5
131
11
-3
39
-23
-103
-59
-87
131
31
2
-3
37
-39
-59
-47
-95
131
59
-13
11
9
3
-15
23
107
85
67
193
111
-33
-31
-33
-59
-101
-77
-29
-43
-27
-39
-142
-105
-89
-75
-75
-87
5
-22
-21
-13
-19
-111
-83
-63
-61
-11
9
15
31
-83
-87
-53
-51
-61
-29
-13
-11
47
-67
-31
-29
-41
-79
-49
43
37
129
7
23
133
43
-41
-91
41
149
31
49
-5
-89
-59
-33
-37
-49
-43
-81
1
51
29
135
141
19
37
161
-75
-81
-43
-39
-43
-45
-78
-7
51
33
145
21
35
37
55
-47
-77
-37
-31
65
161
18
19
35
35
59
-35
-69
-43
-15
-43
-43
55
69
165
29
55
49
71
-37
-17
-7
-13
-25
-59
41
177
-63
-43
-5
-7
-19
-35
-61
17
83
55
161
-53
-63
-31
-13
-29
-30
29
33
19
63
-45
-37
-31
39
149
13
165
-31
-97
-43
11
27
-3
-14
-11
129
45
-9
-53
-41
-61
-69
-105
-9
-27
139
13
-99
-103
-73
-63
-31
-27
-5
-21
7
-95
-117
-83
-59
-67
-63
-93
-65
9
145
18
-59
-115
-87
-65
-59
-63
-81
-93
-5
19
-9
-23
-21
-5
27
-17
-51
-53
-61
-63
-107
3
-35
-13
3
15
9
-61
-63
-61
-105
-31
-13
11
129
27
-75
-93
-63
-55
-55
-61
-95
-63
35
9
-5
-1
7
-105
-51
-67
-81
149
-13
137
135
45
-15
-89
-71
-31
-43
-53
-61
-95
7
163
135
153
-1
-99
-85
-57
-53
-95
-17
171
19
-13
131
131
141
155
-59
-51
-61
-47
-93
-47
37
139
3
5
41
-77
-41
-47
-53
-75
-63
23
41
2
-14
7
19
-95
-75
-37
-49
-63
-61
-79
15
171
141
131
-95
-43
-45
-57
-87
3
37
25
-1
11
-89
-45
35
-1
7
-91
-47
-39
-49
-57
-97
-61
39
15
-9
5
7
23
-107
-69
-53
-63
3
-9
135
131
154
-15
-89
-79
-43
-41
-51
-53
27
-1
-17
131
137
15
9
-97
-47
-57
-61
-95
-25
43
-5
-21
-7
7
21
19
-85
-91
-61
-47
-60
-57
-73
-45
33
21
3
9
21
39
67
-33
-60
-30
9
15
-7
101
95
63
51
71
81
95
-31
-21
-37
-53
-77
-108
-1
7
-21
141
-93
-63
-69
-77
-91
-107
-27
-47
-27
-23
-99
-105
-61
-53
-69
-37
25
9
-9
-27
-1
15
23
-89
-97
-64
-45
-61
-75
-97
-47
29
15
-3
-13
135
15
169
-47
-87
-67
-49
-43
-53
-69
-84
25
29
-1
-1
-3
23
-89
-61
-45
-27
-37
-53
-87
23
43
15
-23
13
29
39
17
-91
-67
-27
-27
-41
-47
-89
-7
47
25
3
9
27
31
43
-71
-19
-45
-47
-83
-26
49
19
3
-13
25
25
53
-43
-93
-43
-21
-43
-43
-73
-31
53
23
9
-3
31
161
63
-19
-81
-53
-29
-15
-29
43
51
29
19
34
37
69
9
-71
-51
-13
-41
-61
36
79
47
145
41
181
189
47
-63
-17
-17
-15
-61
21
74
57
15
37
161
53
55
-55
-71
-19
-13
-31
54
11
199
-37
-51
-81
-69
155
147
-1
-101
-81
-57
-71
-113
-15
129
175
-9
-45
-27
155
-7
-95
-107
-63
-49
145
-15
-11
-3
149
-77
-115
-57
-75
-87
-95
-15
-31
-5
-5
23
-87
-67
-85
-117
-9
17
-17
-31
-13
-1
35
-29
-125
-91
-61
-59
-61
-75
-111
-17
17
-21
-35
-15
129
17
-7
-93
-93
-53
-53
-69
-75
-107
-49
29
17
-15
-19
-1
21
21
-99
-103
-61
-27
-47
-71
-95
-75
39
17
-13
-25
-3
13
37
-65
-111
-61
-47
-51
-57
-83
-87
19
27
-5
-13
-9
17
53
-25
-103
-79
-47
-29
-62
-79
-95
17
33
-11
-27
-5
17
31
-5
-93
-83
-45
-35
-51
-53
-93
-13
21
-11
-19
-9
-5
19
31
-81
-81
-53
-43
-43
-61
-103
-29
33
7
-9
-13
9
19
51
-89
-89
-53
-49
-57
-59
-95
-61
23
145
-7
-17
1
7
41
-51
-89
-65
-39
-45
-63
-75
-93
15
21
-13
-21
17
21
59
-27
-113
-61
-31
-35
-53
-61
-95
9
35
5
-13
11
21
47
-5
-95
-61
-41
-31
-47
-11
41
161
-7
5
7
33
-85
-39
-27
-49
-31
173
29
15
31
53
-53
-89
-51
-27
-57
47
19
19
25
63
-23
-39
-77
-91
3
-13
3
15
39
-13
-93
-84
-53
-43
-57
-71
-111
-11
29
-1
-23
-15
5
29
-85
-57
-63
-97
-31
37
19
-21
-13
7
27
163
-85
-97
-49
-61
-97
15
-19
-11
-13
9
51
-39
-83
-49
-27
-19
-33
-47
-35
59
192
39
39
193
197
113
53
-39
3
33
-5
-39
73
192
23
3
139
9
29
-17
-75
-61
-5
-29
-43
-49
-31
7
129
-117
-111
-79
-51
-57
-79
-117
-7
-29
-37
-5
-79
-109
-57
-45
-63
-73
-97
-75
27
1
-23
-15
-45
-109
-73
-45
-39
-59
-75
-93
27
39
-7
-15
143
23
49
-23
-111
-73
-37
-17
-39
-75
-95
7
43
-3
35
43
23
-85
-77
-43
-29
-51
-47
-89
-5
41
21
3
-11
23
41
49
-69
-81
-49
-15
-29
-45
-91
-19
51
31
-5
-11
33
39
65
-55
-92
-41
-17
-29
-43
-75
-55
41
41
15
-3
149
33
75
-23
-77
-41
-27
-19
-23
-55
-71
37
43
21
135
23
39
75
7
-57
-55
-7
5
-23
-41
-65
23
51
34
15
29
37
55
49
-59
-45
-23
-11
-23
-23
-61
7
63
47
27
15
41
53
73
-39
-53
-7
5
-15
-33
-57
-17
63
47
25
17
41
31
73
-43
-63
-33
-17
-23
-39
-67
-63
43
31
-1
9
7
33
59
-35
-89
-59
-47
-13
-49
-77
-95
21
17
-5
-29
-11
17
35
-15
-105
-71
-49
-43
-61
-77
-117
5
-29
-17
-11
31
-1
-59
-43
-53
-65
17
-7
-21
-29
5
23
21
-109
-111
-65
-41
-65
-75
-111
-59
143
3
-29
-31
-13
-9
31
-69
-111
-77
-49
-49
-71
-105
-87
5
3
-17
-21
-7
1
41
-43
-41
-63
-95
-105
1
5
-23
-29
-17
5
17
-19
-103
-89
-57
-47
-63
-79
-119
-27
19
-5
-31
-17
-3
15
21
-99
-97
-63
-47
-43
-71
-111
-53
29
3
-29
-19
1
23
21
-79
-91
-67
-47
-51
-67
-91
-65
19
3
-25
-29
-9
3
35
-61
-105
-63
-47
-95
-93
21
27
-9
-21
-13
146
67
-29
-99
-67
-39
-27
-63
-85
-95
21
29
-3
-23
-13
3
35
-11
-93
-59
-47
-29
-53
-57
-113
-21
24
1
-25
-17
1
17
43
-91
-89
-49
-45
-37
-59
-97
-30
35
1
-13
-15
3
27
173
-91
-91
-59
-35
-35
23
7
-13
-29
133
11
51
-47
-25
-33
-67
-89
17
147
-11
-25
-21
-9
49
-9
-99
-64
-37
-27
-40
-61
-95
3
27
11
-33
-13
131
27
139
-97
-75
-39
-30
-53
-65
-107
-19
45
7
-13
-13
3
23
49
-73
-93
-55
-27
-39
-43
-91
-27
39
-25
131
9
67
-57
-93
-47
-19
-21
-39
-75
-63
37
23
7
15
49
-27
-89
-55
-31
-27
-35
-49
-83
9
15
3
-17
3
15
37
-7
-91
-85
-41
-25
-27
-55
-95
-1
27
1
-31
-19
11
145
7
-87
-83
-55
-45
-39
-51
-95
-45
19
7
-19
-15
-5
-17
39
-73
-81
-61
-29
-31
-55
-93
-63
33
15
-23
-17
-14
13
33
-73
-105
-45
-33
-33
-39
-77
-79
17
15
-13
1
-27
-1
39
-30
-83
-55
-41
-15
-23
-51
-95
41
49
23
23
23
59
97
51
-41
-5
23
45
23
15
-23
73
99
61
23
35
17
35
165
-89
-79
-53
-49
-21
9
-103
-49
-49
-69
-121
-73
9
-13
-25
-49
-23
5
-73
-51
25
141
-13
129
181
-73
-44
-31
-41
-51
-85
5
23
7
-11
-21
-1
39
15
-83
-55
-39
-15
-29
-45
-107
-7
25
15
-15
-11
3
35
49
-69
-79
-43
-17
-31
-45
-87
-17
59
13
-11
-11
-1
149
63
-55
-87
-21
-39
-63
-57
31
31
7
-7
139
3
69
-21
-79
-60
-27
-21
-15
-55
-73
27
33
145
-7
3
149
59
11
-77
-45
-7
-13
-7
23
51
13
-9
1
17
43
23
-64
-53
-15
7
-11
-33
-71
-11
47
35
11
7
15
-43
-57
-23
131
-1
-13
-61
-27
59
59
23
-1
23
51
83
-19
-61
-27
-17
-41
-47
59
41
21
7
33
21
63
137
-73
-31
-13
-1
-13
-47
-71
23
51
137
-11
7
25
58
23
-87
-65
-27
-53
-109
-5
35
1
-13
-21
1
29
33
-93
-89
-39
-29
-33
-57
-91
-1
-23
-21
-17
-11
34
-81
-95
-55
-56
-43
-51
-91
-91
-33
-31
-23
-13
43
-46
-111
-63
-51
-31
-55
-75
-94
23
21
-25
-39
-17
-11
19
-45
-121
-81
-59
-35
-103
-7
15
-21
-31
-37
-31
7
-1
-97
-87
-65
-35
-37
-47
-117
-31
23
-5
-31
-43
-27
5
19
-101
-105
-47
-35
-47
-57
-103
-47
17
-3
-33
-47
-9
-9
27
-69
-109
-69
-59
-85
-69
-12
39
-53
-97
-79
-45
-77
-95
129
149
-97
-79
-43
-25
-43
135
139
-15
-19
-19
-51
-49
-97
-31
147
131
-27
-31
-9
-75
-103
-61
-31
-31
-39
-77
-63
17
-23
-23
5
-107
-19
-45
-67
-83
145
19
-9
177
-71
-46
-11
-101
-9
-31
-15
-7
161
17
-101
-77
-45
-21
-47
-43
-97
-21
27
-1
-19
-30
-15
133
38
-77
-89
-55
-25
-29
-37
-78
-43
35
17
-11
-47
-11
129
35
-69
-113
-63
-29
-23
-57
-77
-59
21
3
-9
-29
5
-7
49
-15
-93
-61
-29
-17
-23
-49
-77
21
29
-9
-27
-21
13
43
-11
-103
-71
-25
-3
-29
-47
-81
1
25
131
-11
-15
-7
19
29
-103
-77
-47
-21
-25
-41
-95
-17
35
7
-17
-19
3
21
35
-85
-87
-37
-9
-27
-31
-67
-41
34
9
-7
-21
-11
9
41
-77
-85
-51
-17
-21
-33
-72
-60
33
17
-11
-19
-3
130
49
-46
-87
-62
-29
-29
-41
-55
-79
7
19
-1
-15
-13
-3
22
-13
-89
-81
-29
-13
-33
-55
-89
3
25
-11
-27
-29
-3
21
7
-77
-87
-29
-31
-23
-31
-99
-25
33
-3
-11
-27
-11
29
35
-87
-85
-33
-27
-27
-45
-103
-25
45
-3
-17
-23
-7
5
55
-63
-75
-35
-7
3
-15
-43
-15
85
77
43
31
51
79
118
27
-25
15
47
39
23
-15
-43
55
41
2
-37
-5
-19
9
-45
-123
-91
-56
-61
-63
-67
-123
-37
-13
-23
-49
-51
-31
3
-13
-111
-89
-61
-37
-47
-67
-117
-21
149
-5
-31
18
27
-99
-105
-59
-19
-35
-65
-91
-37
39
145
-29
-35
-21
3
173
-73
-27
-13
-21
-47
-87
7
-1
-17
-7
161
145
-77
-61
-9
-35
50
21
-9
-11
5
34
31
-79
-85
-29
-3
-17
-33
-89
-27
179
-3
-15
-14
59
-77
-81
-29
-5
-7
-17
-55
-37
7
-9
53
-23
-77
-37
-15
-11
-67
37
35
149
17
13
19
53
-33
-25
-63
27
197
49
135
21
-61
139
-13
-63
17
72
135
29
63
75
-59
-53
-9
23
11
145
-1
15
27
-75
-37
-11
-9
-9
-41
135
131
-13
-7
163
-13
-79
-59
-29
-43
-101
-9
-13
15
-95
-41
-47
-125
-23
25
-19
-27
-35
23
-109
-83
-47
-27
-39
-63
-89
-57
145
-15
-35
-45
-23
-13
17
-75
-47
-31
-35
17
-47
-101
-41
-49
-69
-111
7
3
-17
-43
-39
-13
-107
-75
-43
-23
-41
-71
-101
-15
-9
5
11
-103
-93
-47
-41
-49
-33
-91
-43
17
-13
-27
-31
-25
-15
25
-81
-95
-63
-51
-35
-35
-67
-85
11
-1
-29
-41
-27
-1
37
-58
-107
-67
-39
-31
-39
-79
-87
27
17
-33
-39
-17
-11
35
-31
-93
-63
-39
-41
-31
-47
-95
-11
19
11
-29
-31
-1
31
-3
-99
-69
-29
-17
-27
-51
-95
-23
33
-7
-23
-15
-15
-1
23
-75
-79
-47
-33
-43
-43
-81
-53
43
11
-15
-41
-13
3
35
-75
-99
-29
-25
-33
-37
-76
-51
31
3
-9
-15
-13
-13
23
-49
-83
-51
-49
-23
-15
-51
-85
27
19
-1
-25
-19
-7
43
-19
-103
-63
-39
-13
-31
-75
27
-13
-29
-11
-1
-27
-27
-47
-79
-13
23
-5
-15
-27
-11
-3
31
-65
-77
-59
-29
-21
-29
-85
-35
45
9
-19
-27
-11
-69
-91
-45
131
-15
-27
-69
-61
25
19
-21
-29
-5
133
49
-37
-89
-51
-15
-29
-27
-49
33
27
5
-93
-71
-27
-17
-17
-43
-103
4
39
9
151
131
-37
-7
-25
-53
-75
-7
31
3
-27
-5
25
-77
-79
-45
-27
-27
-39
-79
-51
23
13
-11
-28
-19
-7
45
-45
-95
-70
-30
-19
-45
-73
-87
19
-25
-15
-1
171
-27
-83
-69
-21
-13
-13
65
29
63
95
45
-35
5
43
56
-37
33
87
45
-13
-83
-97
-77
-51
-63
-52
-35
135
-96
-121
-99
-49
-44
-55
-91
-91
-35
-101
-89
135
149
159
-13
-109
-81
-15
-21
-25
-57
-35
-23
37
-37
-15
-79
-25
169
-11
7
61
-41
-15
-13
-59
15
-21
3
-3
57
-13
-17
-61
20
-23
3
131
177
11
-81
-59
-7
-47
-79
171
45
15
21
163
47
-73
-1
-19
-11
59
25
9
129
147
35
59
-41
-62
-37
-11
-1
-13
-43
-39
59
145
-55
-27
7
-27
61
31
55
81
15
-64
-27
23
29
-5
-13
-55
53
200
27
17
53
39
-57
-31
-13
-13
9
-9
-81
-7
41
35
3
-11
-7
19
43
-39
-37
-75
-43
25
15
129
43
-79
-95
-53
-31
-45
-37
-81
-63
24
-7
-27
-15
165
-25
-95
-77
-23
-61
-103
131
9
-25
-29
-25
-11
33
-29
-103
-101
-47
-25
-41
25
-24
-53
-31
-9
150
-43
-43
-61
-107
-31
-35
-29
-14
17
-85
-41
-39
-47
-69
-69
3
135
-27
-15
-23
-39
43
-47
-103
-71
-43
-37
-47
-77
-79
13
21
-15
-41
-29
-3
27
-43
-109
-71
-41
-29
-37
-61
-85
5
7
-15
-29
-35
-25
3
-7
-93
-87
-47
-11
-25
-21
25
-5
-25
-39
-13
18
21
-103
-93
-47
-17
-35
-55
-87
-27
35
-11
-27
-29
-23
-7
27
-78
-81
-51
-33
-29
-27
-81
-71
43
25
-11
-29
-13
3
177
-49
-107
-55
-13
-25
-47
-67
-85
25
21
-7
-33
-3
-19
21
-33
-87
-69
-33
-29
-25
-43
-105
-13
161
9
-33
-23
-19
15
-15
-97
-73
-27
-7
-31
-59
-103
130
-29
-35
-7
3
13
-77
-75
-51
-30
-33
-41
-71
-43
3
17
-7
-23
-11
-45
-85
-67
-31
-23
-39
-67
-55
37
17
-15
-23
-11
-7
63
-45
-111
-69
-15
-17
-30
-59
-75
35
27
-23
-33
-13
-13
29
-15
-97
-37
-99
-7
19
-1
-7
-21
-15
17
19
-79
-73
-37
-17
-11
-31
-95
-29
33
21
-11
-15
5
9
36
-81
-75
-23
-15
-27
-25
-67
-47
31
19
-11
-15
-13
3
41
-39
-77
-43
-31
-15
-19
-55
-67
41
27
-1
-35
-13
-3
47
-45
-113
-61
-27
-23
-37
-85
-77
29
23
-5
-11
29
-9
-95
-57
-44
-19
-29
-41
-75
7
13
-9
-13
-23
-27
13
27
-91
-93
-47
-19
-93
-10
-21
-28
-87
-45
-30
-29
-43
-65
-43
23
-5
-13
-25
-15
-1
25
-57
-91
-47
-29
-17
-1
-27
-69
167
53
23
15
19
51
107
26
-45
9
47
57
33
131
-29
87
83
39
147
7
13
31
-11
-91
-75
-53
-47
-55
-43
-9
-15
-51
-49
-46
-37
129
-95
-115
-85
-57
-91
-49
23
1
-41
-55
-25
-9
161
-79
-113
-55
-31
-31
-63
-91
-63
29
-5
-33
-39
-25
-13
25
-49
-89
-71
-37
-21
-27
-45
-85
5
146
-9
-27
-11
1
39
-17
-105
-77
-29
-13
-37
-53
-97
135
43
-11
5
37
-1
-93
-75
-23
-9
-39
-25
-75
-25
35
7
-9
-15
-11
-9
-69
-43
-17
-25
-19
-73
-47
43
17
-13
-37
-25
3
59
-59
-91
-33
-17
-7
-30
-73
-51
65
31
-13
-27
7
5
51
-25
-89
-39
-21
-10
-9
-43
-64
39
25
13
7
-5
3
49
21
-81
-64
-21
19
-3
-23
-67
35
59
23
-9
5
35
57
39
-63
-43
130
7
-57
13
15
133
11
37
63
-57
-43
-13
-5
6
-1
-35
171
31
5
131
161
-63
9
-11
-9
-1
59
-25
-97
-57
-15
-13
-17
-59
-79
31
-23
-13
-15
19
-1
-85
-71
-43
-45
-27
-45
-93
-7
-43
-28
-29
5
29
-95
-95
-63
-29
-27
-47
-97
-33
-27
-49
-11
-1
27
-65
-17
-33
-57
-83
-67
23
-31
-11
-121
-67
-45
-45
-43
-79
-95
7
-3
-9
-29
-29
-21
-97
-75
-43
-43
-41
-5
-1
-89
-55
-28
31
131
-23
-103
-41
-7
-73
23
-77
-93
-3
17
-21
-43
137
-91
-53
-17
-93
-37
161
-13
-19
-29
-23
7
161
-77
-93
-37
-35
-99
-51
-35
-27
-33
-65
-91
21
157
-15
-31
-19
-7
39
-23
-105
-69
-31
-27
-30
-43
-87
7
161
-19
-17
-14
-3
-99
-75
-45
-45
-85
-7
-10
-25
-21
-1
27
-87
-101
-51
-23
-27
-51
-89
-41
39
-39
-17
5
38
-75
-101
-63
-25
-31
-33
-69
-75
33
13
-23
-19
-21
-13
23
-49
-99
-59
-45
-29
-27
-51
-85
23
17
-17
-47
-29
1
-95
-78
-41
-25
-15
-46
-83
-9
163
-9
-29
145
147
-95
-87
-35
-71
-21
-19
-21
-39
-73
-57
47
17
-9
-27
-17
-11
39
-59
-25
-43
-83
27
29
3
1
-11
-3
169
-13
-87
-47
-31
-13
-25
-37
-89
147
53
17
-23
-17
13
-91
-77
-41
3
-15
45
9
-19
-15
-3
143
43
-77
-77
-39
-29
-21
-29
-59
-39
29
11
-9
-21
-23
-11
31
-63
-95
-59
-23
-61
-79
29
21
-23
-7
-97
-73
-41
-59
-5
-29
-23
131
-97
-67
-29
-29
-5
-15
-35
-37
-17
3
35
-43
-3
31
37
165
19
87
43
39
-73
-37
-33
-27
-101
139
13
-41
131
-41
-139
-99
-67
-43
-55
-77
15
-19
-43
-41
-17
-11
9
-103
-95
-57
-41
-29
-39
-83
-33
25
-11
-17
-19
-27
-91
-105
-59
-31
-35
-41
-77
-55
43
19
-5
-27
-31
-1
39
-47
-75
35
161
-95
-57
-23
-15
-27
33
41
-1
-21
-1
1
33
19
-95
-55
-33
-73
-9
33
17
-17
-5
-11
17
37
-21
-11
-35
-63
21
7
15
45
-61
-91
-33
3
-47
65
41
15
-7
5
-27
-75
-29
133
57
39
21
3
129
15
47
15
21
1
-57
43
7
21
23
49
67
-59
-51
-11
19
21
-1
-61
179
139
13
139
33
70
141
-31
53
34
7
15
181
-45
-13
-47
-79
27
31
11
-25
-15
-12
35
-13
-95
-75
-41
-28
-25
-55
-91
19
141
3
-21
-33
-13
5
11
-97
-25
-37
-61
33
-15
-33
-37
-19
-1
149
-103
-43
-41
-41
-91
-71
7
-13
-31
-33
-29
-19
23
-85
-91
-77
-59
-37
-45
-69
-93
-7
137
-15
-41
-39
-19
17
-53
-121
-87
-43
-47
-43
-65
-105
-1
11
-25
-45
-35
-29
-1
-21
-111
-91
-41
-43
-45
-35
-101
-35
145
3
-21
-41
-27
-1
-11
-103
-95
-51
-39
-45
-45
-81
-39
33
-7
-25
-41
-35
-7
11
-87
-105
-51
-45
133
-25
-39
-21
-15
29
-47
-99
-69
-43
-19
-21
-45
-77
23
-45
-111
-79
-41
-11
-25
-59
165
-3
-33
-25
-15
19
-5
-109
-79
-35
-31
-91
-25
35
-11
-15
-17
-29
1
21
-85
-97
-45
-31
-39
-35
-73
-45
41
17
-21
-21
-27
-7
31
-73
-95
-53
-31
-25
-27
36
15
-19
-35
-21
-45
-39
-19
-9
-49
-73
33
25
-13
-26
-11
-5
35
-17
-107
-73
-43
-13
-11
-49
-97
17
53
-5
-35
-17
5
11
17
-93
-67
-33
-25
-21
-35
-79
-11
31
1
-15
-21
-17
3
39
-79
-95
-53
-25
-29
-27
-65
-37
39
13
-29
-25
-11
-15
41
-73
-93
-41
-23
-25
-31
-65
-51
23
27
-7
-5
-21
-15
49
-41
-103
-9
-23
-47
-71
17
33
-13
-25
-11
-11
161
-14
-109
-71
-30
-41
-93
-7
29
-11
-21
-11
9
-81
-91
-31
-21
-25
-23
-79
-25
45
131
-11
-13
-17
3
43
-75
-93
-43
-27
-29
-25
-77
-45
50
21
-15
-21
-21
-9
23
-49
-85
-51
-39
-29
-25
-47
-59
43
33
7
-29
-7
-1
39
-21
-95
-53
-25
-17
-7
-49
-81
37
50
130
-21
-5
11
37
-7
-113
-55
-27
-1
-11
149
37
19
-11
-13
-5
17
25
-89
-73
-29
-21
-19
-23
-73
-17
35
7
-7
-15
-15
-3
47
-89
-93
-44
-23
-17
-31
-62
-47
35
3
-15
-29
-15
-7
43
-63
-77
-71
-35
-39
-39
-53
-64
21
27
-11
-25
-23
-15
25
-41
-93
-79
-21
-11
-39
-49
-85
21
37
-7
-29
-15
-11
17
-7
-87
-63
-25
-11
-7
-9
-61
33
69
45
33
41
49
73
83
-15
-17
27
41
51
43
-25
29
87
45
11
-14
11
-91
-105
-67
-57
-55
-59
-97
-15
-45
-63
-45
-35
2
-95
-113
-71
-63
-45
-27
-81
-97
19
145
-23
-41
-27
-9
35
-43
-123
-59
-29
-55
-79
19
29
5
-27
-19
-5
21
-9
-105
-81
-45
-31
-21
-35
-77
3
35
-1
-23
-31
-3
17
27
-91
-93
-11
-29
171
11
-15
-1
43
-75
-77
-43
-25
13
-5
-13
-1
-5
163
-41
-17
-31
-63
157
33
139
-11
-3
-17
-91
-61
-33
-7
-11
21
55
17
-13
-11
29
-85
-81
-9
-13
-73
131
183
147
133
-9
137
151
45
-73
-77
-31
139
-9
-21
-49
-13
19
-29
-71
3
1
-25
-41
27
21
139
35
63
23
-61
-31
63
29
-79
-69
-13
-65
145
57
21
-81
-41
-7
-23
-39
-63
-41
33
11
-21
-29
-19
-3
19
-73
-95
-59
-33
-62
5
-14
-29
-37
-49
-113
-75
-53
-39
155
25
-11
-9
19
-13
-115
-37
-49
-109
-109
-103
-63
-25
-47
-35
-29
-89
-109
-73
-39
-73
5
-23
-23
155
-79
-91
11
145
-29
-17
21
-13
-117
-79
-47
-29
-37
-45
-108
-1
-33
-19
-19
3
7
-107
-87
-57
-63
-89
-33
23
-9
-29
-39
-23
-13
137
-99
-87
-59
-27
-31
-39
-73
19
-39
3
39
-69
-101
-57
-29
-7
-25
-59
-73
21
162
-3
-39
-27
-9
31
-33
-103
-71
-81
9
-17
-7
-5
139
11
-47
-31
-31
-31
-85
-5
39
-3
-21
-17
-87
-9
-44
29
17
-19
-41
-11
-87
-97
-51
-41
-69
-31
-19
-3
165
-13
-25
-37
-75
45
163
17
-5
-109
-79
-85
155
-105
-89
-13
149
37
-57
-103
-15
151
155
-21
-27
-111
-13
-19
-11
-81
-73
-21
-17
-15
-21
-69
149
-5
143
33
-53
-77
-7
133
-43
-29
-43
-67
-3
-9
-19
-17
35
-73
-35
-19
-27
157
-15
-21
9
13
2
-95
-91
-43
-29
-23
-43
-99
-11
53
137
-31
-25
-11
137
-91
-59
-41
-77
-39
27
-35
-19
-15
31
-89
-93
-61
-31
31
23
-9
-15
55
-11
-71
-29
-3
17
-29
93
85
67
37
177
53
211
39
-91
-9
29
-29
-65
-31
-15
-145
-119
-75
-63
-60
-67
5
-21
-53
-44
-41
-29
17
-109
-119
-79
-39
-27
-41
-85
-51
34
13
-33
-45
-21
-3
31
-45
-37
-79
-17
-21
-39
-29
-25
-17
27
41
1
-25
-19
-7
17
3
-83
-87
-15
-15
-75
11
-17
139
19
-33
-11
-17
21
-13
-13
-5
11
51
-71
-25
-59
-31
45
19
-3
-11
-13
5
53
-23
-85
-55
-11
-43
-65
49
57
7
-9
-1
7
61
15
-91
-55
-9
-3
-11
-21
-57
161
59
17
17
19
9
37
29
-61
137
-51
11
199
141
19
39
63
17
13
-31
-29
87
63
31
7
163
165
83
-25
-69
-17
-7
7
9
-25
-41
59
47
19
3
19
-13
-99
-53
-25
-11
-9
-27
-59
31
35
11
-15
-15
-15
-111
-87
-7
-15
-27
-23
3
145
-95
-97
-57
-37
-39
-45
-95
-55
-5
5
-87
-119
-73
-31
-37
-47
-77
11
-23
-47
-29
-21
149
-47
-117
-47
-39
-53
-97
3
9
-17
-31
-33
-27
5
-21
-125
-93
-59
-39
-39
-47
-89
-11
23
-13
-45
-29
-23
-3
5
-107
-93
-59
-35
-35
-53
-79
-21
25
5
-13
-33
-35
-15
17
-91
-99
-69
-29
-41
-51
-75
-57
27
13
-29
-41
-33
-23
29
-71
-117
-33
-79
33
23
-15
-37
-23
-23
21
-49
-109
-73
-45
-43
-37
-45
-87
19
17
-13
-25
-37
-17
7
-15
-95
-85
-45
-29
-23
-45
-91
5
-45
-29
-3
19
-107
-107
-63
-27
-91
-28
41
3
-31
-25
-11
-15
27
-95
-41
-29
-45
-61
-57
165
13
-21
-33
-15
-17
17
-55
-105
-67
-27
-51
-91
27
29
-1
-33
-31
-7
33
-47
-33
-19
-85
11
163
-7
-37
-35
-27
5
-9
-105
-87
-37
-23
-39
-43
-83
-23
17
137
-23
-27
-21
-15
23
-85
-109
-57
-27
163
5
-25
-29
-25
-13
36
-59
-109
-71
-29
-11
-31
-63
-73
22
33
-9
-33
-15
-13
23
-47
-107
-39
-91
17
33
-17
-31
-29
-14
31
-71
-35
-27
-79
-3
31
129
-15
-43
-25
-13
147
-75
-29
-33
-19
-23
-11
-1
49
-15
-47
41
169
-17
-25
-33
-91
-63
-39
-17
-31
-33
49
133
-17
-7
-3
-99
-61
-29
-17
-21
-29
129
15
-83
-29
-73
-11
-15
-7
37
-87
-37
-15
-37
-15
-11
39
-61
-107
-63
-43
-49
-71
147
31
-7
-27
-15
-7
11
-31
-25
-21
-11
165
21
21
33
79
59
-41
-25
33
-15
59
107
67
147
-72
-91
-63
-37
19
-93
-129
-77
18
31
-19
25
-55
-107
-73
-49
-25
-29
-55
27
-9
-30
-27
-15
145
-15
-103
-79
-37
-9
-29
53
9
-14
143
143
-99
-91
-33
-15
51
13
-7
-15
-9
-87
-57
-23
-5
-15
-45
-43
171
165
5
-13
43
-27
-15
-19
-49
-77
29
179
133
-13
-9
5
35
-13
-77
-71
-21
1
-15
-37
-75
-11
19
-27
-17
-61
-1
67
21
-1
15
-77
-39
-15
2
-21
67
15
25
162
205
-41
133
-19
-29
37
137
-67
-55
7
15
-1
-11
35
29
57
17
-71
-55
-15
131
-59
-3
195
19
3
23
41
-61
-86
-43
-31
-21
-12
-59
-21
-9
-25
-9
-11
31
-73
-111
-59
-41
-31
-37
-73
-77
23
15
-15
-7
23
-61
-123
-78
-45
-27
-45
-61
-77
11
17
-13
-47
-30
-27
5
-17
-111
-83
-53
-27
-39
-51
-93
-15
35
-3
-29
-55
-39
-3
-13
-115
-109
-49
-37
-45
-59
-87
-35
161
-9
-15
-41
-37
-17
11
-99
-109
-73
-37
-47
-55
-87
-67
29
129
-27
-39
-29
-27
41
-68
-113
-75
-49
-33
-81
35
141
-27
-31
-37
-15
5
-45
-111
-78
-55
-39
-39
-45
-87
21
21
-5
-35
-17
-15
9
-3
-109
-91
-47
-29
-27
-41
-103
-5
45
-5
-31
-31
-27
5
133
-47
-87
-15
41
13
-15
-27
-17
-7
31
-63
-33
-35
-35
-69
-55
23
17
-9
-15
-23
-23
31
-49
-117
-69
-39
-25
-31
-61
-79
33
161
2
-15
31
-37
-107
-81
-42
-25
-29
-45
-73
27
-13
-29
-11
21
-9
-87
-75
-49
-33
-29
-29
-67
-5
21
23
-19
-31
-17
-23
-23
-27
-73
-38
-13
-23
-7
-5
-107
-65
-37
-15
-39
-77
-55
23
27
131
-37
-11
-1
23
-33
-27
-32
29
53
-1
-25
-15
-11
21
-15
-99
-31
-23
-43
-85
-5
19
21
-7
-75
-95
-61
-35
-23
-41
-79
-19
-7
-7
45
-75
-27
-14
-29
-73
-45
23
19
-9
-35
-17
-7
27
-75
-35
-25
-29
-47
-65
6
-13
-7
1
-91
-69
-17
19
-9
-19
-13
-85
-91
-49
-29
-15
-23
-9
-27
-9
130
33
-81
-109
-45
-17
-13
-41
-75
-37
43
19
-11
-29
-9
-9
39
-59
-117
-77
-31
-25
-35
-47
-69
21
33
-3
-29
-17
-25
31
-25
-115
-83
-39
-19
-39
-55
-81
17
49
-1
-29
-11
-5
7
-9
-93
-83
-45
-31
-79
-13
55
21
7
27
47
-13
19
33
45
-7
31
53
33
47
55
77
-29
-21
-31
-41
7
-79
-143
-89
-64
-59
-59
-73
-101
-9
-7
-31
-46
-27
-33
3
-27
-127
-101
-59
-45
-17
-57
-91
17
23
-11
-31
-25
-29
11
5
-109
-89
-55
-29
-25
-17
169
7
-27
-25
-9
3
145
-91
-93
-57
-33
-31
-39
-63
-47
37
23
-15
-29
-17
-11
51
-45
-19
-27
41
25
-21
-47
-65
161
53
7
-7
29
15
-111
-75
-25
-17
-73
141
53
19
131
3
4
15
27
-84
-64
-41
-9
-59
-14
61
37
15
-3
-15
19
55
-43
-19
3
193
49
11
9
-1
147
63
-47
-5
65
70
33
54
11
-73
-43
-13
15
75
39
17
145
-51
-27
-1
-5
-17
-47
5
55
169
1
19
54
-67
-81
-39
-11
177
-21
-109
-67
-27
-15
-29
-61
-63
35
161
-7
-37
-31
-9
15
-35
-129
-89
-55
-29
-43
-53
-91
11
23
-13
-35
-29
-5
-117
-45
-91
-27
25
1
-23
-33
-27
-15
13
-117
-109
-57
-31
-45
-59
-87
-63
19
5
-31
-41
3
-99
-117
-79
-47
-51
-43
-63
-78
17
19
-13
-39
-47
-35
25
-57
-117
-87
-51
-31
-47
-61
-85
9
35
-11
-47
-27
-21
11
-41
-123
-93
-57
-39
-61
-57
-89
-7
33
-9
-43
-31
-23
-5
-3
-91
-105
-57
-37
-37
-53
-93
-19
35
7
-25
-41
-27
-1
17
-79
-113
-71
-21
-31
-45
-69
-39
27
19
-23
-41
-35
-15
5
-73
-101
-79
-53
-27
-27
-57
-67
27
23
-7
-37
-19
-9
35
-39
-113
-77
-43
-25
-23
-53
-93
27
23
-11
-33
-17
-15
5
-9
-113
-95
-49
-37
-23
-41
-97
-11
37
5
-29
-31
-13
135
13
-107
-95
-59
-25
-23
-41
-85
-15
37
9
-13
-33
-23
-3
25
-93
-81
-51
-27
-17
-43
-67
-39
29
29
1
-43
-25
3
55
-65
-89
-49
-15
-17
-33
-69
-57
33
37
3
-33
-21
-9
33
-39
-101
-79
-26
-17
-33
-43
-62
15
33
19
-31
-23
-11
37
-19
-117
-75
-27
-21
-23
-37
-87
7
53
13
-29
-29
-21
11
27
-94
-81
-45
-11
-11
-29
-81
-13
53
23
-17
-33
-13
23
37
-105
-88
-33
-11
-27
-27
-53
-31
49
23
5
-23
-15
3
41
-79
-95
-59
-13
-5
-23
-59
-51
35
43
3
-31
-27
-9
37
-53
-103
-61
-13
-11
-21
-39
-67
29
35
17
-23
-17
-23
31
-1
-103
-71
-35
-7
-21
-51
-95
150
43
11
-33
-25
-11
23
3
-103
-85
-31
-15
-17
-33
-85
-9
51
15
-23
-39
-15
7
31
-77
-89
-57
-29
-19
-29
-77
-51
27
151
-9
-49
37
-59
-107
-75
-29
-17
-29
-61
-67
33
37
129
-41
-27
-9
39
-31
-101
-71
-13
-3
-15
-41
-47
55
65
39
-1
163
27
83
55
-47
-19
23
45
37
25
-23
71
101
59
17
-17
-11
21
21
-103
-111
-67
-41
-45
-73
-119
-59
7
-23
-43
-63
-51
-41
-9
-107
-52
-55
-53
-91
-79
-75
-47
-15
-17
-64
23
-11
-41
-47
-13
35
-25
-41
-7
-27
-39
-93
15
169
-1
-35
-23
-11
19
11
-105
-77
-25
-5
-25
7
21
-91
-91
-57
-19
-9
-51
45
29
-13
-13
45
-53
-87
-51
-30
-9
-23
-47
-63
52
47
15
-33
-17
9
43
-31
-97
-57
-25
3
-11
-55
-69
45
55
9
-13
-7
5
41
3
-85
-57
-27
131
5
-19
-67
21
57
29
7
-15
15
37
37
-73
-77
-19
19
-5
-5
-61
3
75
53
13
-3
11
19
67
-51
-71
-41
-5
193
51
37
137
135
5
69
-19
-51
-31
3
25
9
-17
-49
59
69
27
-7
19
21
61
133
-78
-45
-11
11
1
-17
-67
49
-13
-5
5
49
-62
-29
-11
-19
-14
-89
-17
43
15
-13
-31
-15
15
-97
-51
-29
-30
-27
-91
-43
42
18
-25
-39
-27
-17
21
-87
-109
-59
-46
-33
-37
-69
-63
-3
-35
-31
-31
153
-73
-49
-27
-37
-59
-91
19
15
-19
-41
-33
-43
18
-27
-129
-85
-39
-23
-25
-61
-93
11
27
-17
-29
-41
-37
-1
-7
-123
-103
-61
-33
-33
-45
-93
-29
37
-7
-37
-45
-30
-9
19
-107
-113
-75
-35
-33
-59
-94
3
-27
-43
-33
-21
19
-97
-111
-79
-53
-31
-31
-63
-79
25
145
-11
-31
-39
-39
29
-59
-111
-67
-57
-17
-29
-62
-93
7
19
1
-37
-53
-25
21
-25
-111
-83
-47
-15
-35
-55
-87
17
29
-3
-29
-33
-23
11
9
-101
-93
-55
-29
-23
-37
-95
-31
38
7
-13
-37
-33
-9
162
-89
-97
-69
-23
-14
-37
-89
-47
25
21
-7
-43
-25
-9
29
-73
-107
-63
-47
-15
-23
-59
-55
23
19
3
-23
17
-41
-77
-79
-39
-11
-15
-47
-85
9
37
7
-33
-37
-1
21
-11
-109
-77
-43
-15
-15
-43
-91
-13
37
9
-19
3
-93
-79
-49
-25
-23
-41
-77
-31
31
15
3
-29
-31
135
31
-91
-105
-61
-29
-15
-33
-77
-57
47
23
-3
-33
-26
-3
37
-63
-103
-57
-17
-11
-13
-51
-59
41
39
135
1
-9
-7
171
-19
-97
-63
-37
-5
-9
-37
-85
35
47
19
-11
-21
-13
31
13
-91
-75
-31
-9
5
-15
-83
11
43
15
1
-19
-12
5
29
-79
-75
-15
-29
-77
-31
35
149
-29
-1
39
-77
-105
-59
-33
-13
-31
-75
-53
39
153
-7
-53
-31
-9
39
-57
-113
-67
-41
-21
-75
25
25
-9
-25
-27
-39
23
-27
-107
-79
-41
-25
-23
-30
-93
137
27
7
-17
11
23
-95
-87
-41
-11
-9
-11
-67
21
151
23
45
65
89
-17
-37
5
29
39
25
-31
7
69
43
3
-31
-93
-119
-91
-79
-59
-61
-23
131
-19
-47
-57
-35
7
-53
-133
-91
-59
-31
-55
-67
-97
17
35
11
-43
-29
-27
23
-15
-115
-23
-75
7
45
-3
-9
-25
-29
7
15
-77
-87
-55
-43
-15
-27
-83
-23
161
19
-1
-17
-15
2
31
-59
-91
-63
-33
-7
-31
-57
-47
43
31
2
-15
-11
-5
29
-45
-94
-57
-31
-11
-13
-27
-71
15
31
131
-13
-23
-7
35
-25
-99
-73
-37
-11
-11
-37
-75
33
55
11
-7
-13
-9
37
11
-81
-55
-27
-23
-51
3
47
33
1
-19
-11
9
-85
-29
-59
-21
55
35
11
2
-13
131
63
-51
-83
-36
-15
19
-7
-31
-37
61
45
23
-5
11
29
55
-15
-71
-35
-3
155
5
-11
-37
195
75
21
21
55
31
-55
-29
-9
1
-47
41
73
51
31
7
149
161
55
-67
-61
-7
-17
-69
-1
131
145
-99
-43
-15
-69
-51
-27
-25
-21
-29
31
-63
-111
-73
-49
-39
-29
-57
-93
15
17
-15
-19
-41
-33
5
-47
-115
-75
-63
-27
-27
-49
-107
18
27
-9
-37
-27
-17
11
-21
-115
-85
-45
-35
-31
-43
-97
-5
37
7
-27
-111
-101
-55
-55
-45
-43
-91
-49
149
-23
21
-83
-113
-79
-59
-31
-35
-81
-67
7
-39
-37
-33
31
-63
-117
-89
-57
-37
-23
-21
-33
-23
-3
9
-19
-107
-93
-51
-30
-35
-31
-91
5
49
17
-23
-17
-25
7
15
-101
-89
-47
-31
-25
-17
-81
139
3
-35
-39
-15
157
-93
-103
-61
-31
19
17
-3
-37
-37
3
162
-61
-107
-65
-41
-55
-73
-25
-11
-23
19
-39
-95
-73
-49
-21
-11
-35
-94
17
27
7
3
15
-7
-81
-79
-13
-21
-81
1
49
23
-9
-3
-97
-57
-15
-21
-31
-75
-25
51
23
-7
-27
-25
-27
31
-59
-37
-19
-15
-45
-47
33
21
10
-7
-15
-19
31
-31
-75
-64
-31
-21
-23
-33
-73
27
49
-1
34
7
-93
-65
-29
-23
-7
-29
59
23
23
-75
-67
-23
31
41
13
129
-3
-7
37
-65
-95
-47
-33
-19
-27
-55
23
-9
-21
-29
-15
39
-57
-115
-73
-31
-45
-47
-61
-65
27
11
-5
-13
-39
-27
13
-25
-101
-77
-47
-37
-31
-62
-77
7
-23
-43
-23
9
-11
-51
-23
-29
-61
-78
5
43
-9
-17
-13
-15
5
17
-87
-75
-49
-19
-9
-21
-57
3
59
45
37
27
93
-11
-31
5
31
47
25
7
9
55
-45
-107
-47
-47
-73
-95
-7
133
-27
-51
-44
-101
-61
-61
-55
-43
-107
-11
19
-25
-29
-29
-45
-31
5
-111
-99
-65
-55
-28
-45
-91
-27
-31
19
-97
-111
-69
-25
-31
-41
-70
-49
47
9
-27
-29
-27
-19
27
-73
-105
-61
-41
-25
-15
-53
-63
31
31
133
-13
-15
-15
39
-39
-99
-59
-39
-29
-3
-33
-85
43
42
15
-19
35
-3
-91
-61
-33
-11
-13
-21
-69
27
35
21
11
-5
-1
11
-75
-43
-15
-13
-5
-53
5
69
31
19
7
63
-59
-77
-40
-15
-7
-9
-61
-25
59
-1
53
-39
-87
17
-29
-25
57
66
15
19
18
129
57
1
-75
-33
-15
7
27
-9
-59
55
69
37
25
33
22
51
-57
-3
-5
9
7
-35
19
73
17
13
7
-55
-15
-15
-9
7
-45
-17
45
35
13
-3
-29
9
39
-69
-89
-49
-30
-21
-31
-59
-51
45
27
-9
-23
-19
-5
27
-61
-111
-65
-47
-25
-30
-55
-69
25
17
-19
-25
-28
-31
9
-37
-115
-85
-67
-41
23
-5
-31
-27
-39
-115
-93
-65
-45
-29
-39
-5
-27
-33
132
-113
-105
-73
-45
-59
-37
25
1
-13
-29
153
-91
-111
-69
-55
-46
-33
-69
-79
-1
15
-91
-55
-39
39
47
-7
-23
-21
-27
11
-94
-61
-31
-31
-49
-95
17
37
-9
-17
-25
-35
-17
3
-111
-85
-71
-57
-31
-27
-85
-41
47
7
-17
-29
-30
-17
19
-107
-117
-61
-35
-31
-29
-67
-47
29
7
-13
-11
165
-78
-97
-63
-47
-43
-15
-43
-73
17
23
3
-5
-13
-19
27
-27
-111
-77
-41
-37
-33
-47
-79
17
39
3
-29
-5
1
21
-7
-111
-79
-49
-37
-43
-31
-75
3
33
9
-3
-15
137
-95
-33
-37
-91
-31
49
23
-15
-19
-25
-7
29
-75
-95
-65
-31
-29
-29
-59
-55
43
31
-13
-15
-11
-27
29
-57
-111
-64
-43
-29
-61
31
25
1
-15
-11
-19
23
-25
-43
-25
-75
11
165
7
-11
-9
-19
7
7
-47
-31
-41
-27
59
19
21
161
-81
-92
-43
-30
-15
-27
65
38
163
-53
-95
-53
-29
-23
-19
47
29
-7
129
-113
-65
-43
49
11
-7
-13
-9
23
-7
-109
-97
-29
-37
-69
-13
169
130
-21
-15
-17
-17
25
-91
-93
-49
-41
-47
-27
-73
-31
43
7
-15
-11
-17
-11
17
-81
-110
-61
-43
-67
-65
47
27
-11
-25
-31
-5
34
-55
-105
-59
-31
-13
-21
-17
-59
43
59
35
21
51
35
81
35
-59
-1
27
39
25
47
-11
71
95
52
35
11
-5
17
15
-123
-95
-61
-63
-63
-47
-99
-37
15
-23
-37
-41
-47
-29
-3
-135
-115
-77
-55
-59
-57
-77
-53
17
-9
-19
-31
-30
-23
27
-91
-115
-81
-45
-31
-37
-73
-49
21
9
-3
-23
-19
-27
27
-63
-109
-75
-53
-31
-25
-43
-59
15
33
3
-15
-13
-27
11
-21
-105
-29
-47
-43
-78
9
53
11
-15
133
-10
7
148
-93
-79
-35
-29
-25
-15
-77
-9
53
17
-1
1
3
-83
-95
-41
-39
-21
-17
-55
-41
65
37
1
-14
3
3
37
-71
-95
-37
-25
-25
-29
-45
-62
61
41
135
-3
141
7
51
-37
-105
-53
-27
-17
-13
-29
-51
49
50
21
5
3
1
43
21
-87
-43
-21
-5
-13
1
-61
33
73
25
11
19
7
35
49
-83
-53
-9
-1
-11
7
-39
23
69
42
35
31
19
-57
-65
-33
-13
-12
-13
-31
-7
195
40
21
17
21
17
53
-43
-85
-55
-5
-9
-11
-19
-43
59
47
5
3
25
9
25
-63
-43
-47
-81
33
-17
-3
-5
19
-25
-109
-85
-39
-31
-47
-47
-89
-23
45
7
-25
-27
-15
-15
-7
-119
-106
-57
-45
-64
-45
-81
-31
31
13
-23
-33
-29
-33
17
-93
-125
-77
-47
-47
-47
-81
-64
25
7
-29
-37
-31
-25
15
-71
-131
-79
-51
-45
-61
-55
-79
27
-17
-13
-131
-81
-47
-39
-43
-45
-79
145
165
-19
-15
-23
-23
-1
-17
-107
-103
-64
-47
-45
-45
-87
-29
41
19
-29
-25
-7
-5
-1
-111
-109
-51
-41
45
-23
-11
-17
29
-89
-125
-39
-51
143
151
-5
-25
-7
-79
-45
-39
-31
-55
-63
31
35
-13
-13
-7
-11
147
-85
-47
-35
-27
-31
-91
-9
37
131
-13
-35
-7
-7
9
-101
-93
-28
-27
-37
-31
-71
-23
-9
153
-91
-105
-45
-31
-29
-33
-61
-41
43
19
129
-11
-19
-15
33
-39
-95
-67
-41
-23
-29
-35
-77
-15
-7
-1
19
-19
-109
-84
151
55
2
-17
-13
-5
21
-9
-97
-91
-81
-15
49
21
3
-11
-7
-45
-47
-57
21
-5
-5
-11
-9
-108
-67
-47
-31
-71
43
-15
-111
-83
-45
-23
33
-1
7
-5
43
9
-39
-33
-75
-9
59
29
11
-11
5
-97
-97
-46
-29
-39
-31
165
9
-1
1
-65
-113
-53
-35
-63
-61
33
43
-3
-15
-13
-1
49
-41
-121
-75
-45
-35
-45
-55
-85
34
41
5
-13
5
-11
150
-13
-117
-93
-59
-47
-95
-11
47
3
-11
-19
2
19
17
-111
-91
-61
-47
-43
-47
-91
-31
39
21
-5
-25
-9
15
153
-107
-107
-57
-39
-25
-37
-71
-37
51
3
-59
1
31
35
33
9
1
101
95
83
43
27
21
66
-7
-103
-81
-57
-45
-57
-91
-119
11
9
-31
-45
-43
-31
-7
-39
-133
-129
-85
-65
-65
-77
-111
-29
23
-1
-25
-29
-21
-3
7
-105
-118
-64
-39
-53
-75
-99
-31
35
23
-11
-19
-13
-3
7
-91
-107
-74
-45
-37
-55
-63
27
-17
-9
45
-46
-119
-73
-46
-29
-27
-55
-75
41
169
3
-13
-15
-31
-117
-15
-33
17
-15
-5
15
19
11
-107
-91
-49
-31
-39
-47
-85
-3
1
11
155
-87
-95
-53
-31
-75
-33
63
45
9
-9
3
15
55
-53
-95
-63
-31
-59
-45
55
51
145
25
69
-17
-102
-13
-23
-31
-63
57
193
35
15
149
25
-85
-49
-7
-7
-3
27
71
19
147
167
61
-67
-13
131
-9
-57
43
25
3
17
41
63
-59
-79
-37
-11
-5
-15
-59
-39
75
45
15
-9
13
17
41
-45
-101
-61
-23
33
177
-3
13
35
-7
-115
-43
-41
-63
-15
-24
-9
17
-9
-129
-113
-60
-37
-47
-59
-87
-25
41
-9
-13
-25
-27
7
19
-109
-117
-77
-47
-51
-61
-95
-47
41
13
-11
-35
-33
-9
150
-87
-121
-79
-51
-43
-55
-99
-75
25
13
-13
-29
-11
-15
23
-61
-57
-73
-95
27
23
-13
-17
-21
-17
11
-15
-123
-95
-63
-51
-53
-73
-115
3
33
3
-33
-19
-9
9
-13
-117
-99
-57
-49
-49
-61
-89
-25
33
21
-17
-15
1
-9
27
-95
-119
-67
-49
-49
-55
-79
7
-19
-25
-19
7
45
-85
-123
-85
-45
-43
-49
-79
-67
27
31
-5
9
31
-39
-113
-93
-55
-57
-87
19
33
-1
-15
-7
-7
-109
-89
-51
-45
-31
-53
41
23
-7
-17
-7
25
11
-107
-93
-57
-37
-39
-47
-93
-37
57
-23
-13
3
33
-47
-46
-43
-45
-71
-59
29
-11
-3
-3
53
-73
-41
-23
-41
-61
-73
39
29
3
-17
-13
-5
49
-25
-117
-85
-49
-29
-43
-61
-77
17
49
3
-11
-11
1
24
9
-107
-87
-49
-33
-29
-51
-93
-11
49
9
9
-13
1
157
31
-79
-97
-49
-27
-75
-33
53
25
5
-7
5
11
45
-59
-97
-45
-33
-63
-73
57
37
15
-11
-7
17
43
-39
-101
-29
-27
-59
-69
45
53
21
-25
-3
3
35
2
-109
-71
-41
-33
-37
-59
-77
9
-5
149
23
-105
-93
-63
-31
-35
39
39
-87
-33
-41
-51
-87
151
-7
31
-61
-113
-63
-45
-37
43
145
139
53
-1
-97
141
133
-9
-47
59
61
65
89
87
-41
-27
3
-11
55
131
-17
-31
-1
-129
-145
-93
-73
-75
-79
-125
-81
-33
-21
19
-81
-137
-75
-57
-81
-79
27
31
-9
-23
-13
-11
34
-41
-131
-75
-65
-29
-91
25
7
-9
31
6
-113
-95
-61
5
155
163
-33
-37
-31
-77
-45
49
-5
2
8
45
-73
-103
-21
-61
59
19
187
-21
-25
-41
-73
37
55
141
133
-99
-81
-21
23
-47
-29
-27
-21
69
133
5
41
-15
3
129
-41
-23
71
61
35
163
-85
-41
-11
-23
-45
67
67
34
19
29
37
64
149
-83
13
-7
165
73
35
19
9
33
-91
-85
-41
-23
-23
-33
-75
-17
61
31
135
3
-9
6
39
-75
-105
-53
-43
-39
-55
181
22
1
-27
-9
2
162
-57
-123
-79
-45
-29
-43
-78
-77
29
23
-25
-31
21
-31
-63
-45
-31
-51
-109
3
31
-9
-27
-29
-25
7
-97
-67
-49
-61
-71
-103
7
-35
-111
-123
-63
-47
-51
-57
-101
-63
33
-17
-23
-27
149
-91
-51
-85
-75
-7
-35
-23
-17
25
-47
-125
-100
-59
-35
-39
-71
-93
19
37
-9
-23
-21
-13
-115
-91
-61
-41
-43
-45
-109
-17
35
3
-15
-21
-15
17
137
-103
-101
-63
-47
17
31
-97
-123
-67
-55
-119
-79
-61
-29
-43
-75
-85
-5
-115
-85
-53
-31
-21
-57
-95
17
45
19
-15
-13
-1
145
17
-107
-81
-55
-37
-33
-31
-87
-15
41
17
133
-23
-9
15
23
-95
-99
-59
-41
-45
-45
-73
-53
41
27
13
-15
-17
-3
35
-81
-125
-77
-35
-45
-47
-65
-71
35
27
19
-13
-14
-47
-47
-83
43
165
11
-9
-21
-9
27
-1
-95
-83
-55
-25
-25
-47
45
23
-9
-11
-1
21
23
-89
-85
-59
-31
-29
-35
-73
-11
49
25
1
-15
-1
5
41
-71
-99
-63
-41
-31
-33
-61
-55
49
35
129
-13
-9
-53
-115
-73
-49
-39
-37
-71
-73
34
29
5
-15
-22
-9
43
-31
-111
-78
-55
-37
-29
-61
-78
19
39
13
-13
-21
-13
31
-11
-115
-83
-55
-29
-45
-51
-91
-5
55
17
-9
-27
-15
17
21
-113
-111
-57
-43
-95
-30
-5
-13
-61
-89
-43
-11
-7
79
53
38
57
57
99
23
-43
-9
7
25
9
-41
-71
43
53
-7
-41
-29
-13
15
-55
-149
-113
-91
-73
-64
-93
-115
-23
9
-15
-39
-51
-29
3
-5
-81
-47
-55
-53
-109
-31
35
-1
-14
-15
-23
9
21
-107
-107
-69
-47
-91
-47
39
11
-15
-19
45
-64
-43
-33
-29
-73
27
-11
-73
-55
-33
-23
-57
-79
37
177
-113
-79
-49
-30
-29
-43
-89
11
139
41
-85
-91
-15
-31
-75
-21
53
23
131
-11
3
21
56
-63
-89
-59
-37
-27
-29
-63
-51
49
49
25
5
7
17
51
-39
-87
-71
-33
-17
-23
-53
-67
39
51
23
9
11
15
47
1
-97
-57
3
-29
-77
41
67
49
11
17
161
51
17
-19
-13
-11
-3
-71
11
81
57
31
5
25
51
65
-57
-71
-27
-13
-5
-11
-61
-11
69
1
131
23
65
-53
-83
-41
-17
-21
-27
-47
-45
161
37
13
-15
2
-5
49
-27
-105
-75
-53
-27
-41
-48
-91
17
23
-9
-19
-15
-15
21
-17
-117
-93
-53
-49
-93
-9
35
3
-25
-21
-29
131
3
-117
-115
-73
-29
-51
-65
-103
-35
37
3
145
-105
-123
-77
-51
-43
-83
-17
-29
-25
-13
23
-67
-123
-67
-59
-61
-47
-89
-95
21
21
-9
-19
-33
-43
-129
-49
-45
-67
-93
21
169
-15
-29
-25
-15
27
-11
-123
-95
-75
-35
-45
-63
-111
-13
31
-7
-21
-28
-25
5
19
-108
-107
-79
-47
-31
-51
-91
-43
35
5
-11
-25
-27
-9
37
-85
-77
161
-41
-30
-19
165
-63
-121
-77
-49
-45
-39
-73
-93
27
153
11
-17
-23
-9
33
-11
-115
-41
-43
-59
137
-11
155
-91
-65
-37
-39
-47
-93
5
-5
-13
-11
-103
-73
-55
-27
-47
-86
-63
35
11
-3
-19
-9
131
35
-77
-103
-73
-53
-27
-35
-65
-71
27
25
135
-15
-13
7
169
-45
-101
-89
-43
-41
-37
-59
-95
19
39
11
-17
39
-23
-115
-87
-53
-33
-101
-11
51
-25
-15
-91
-105
-55
-43
-39
-41
-85
-31
27
25
-13
-27
-9
-7
34
-73
-113
-37
-39
-59
-57
43
23
137
3
55
-31
-103
-63
-44
-21
-17
-69
-71
41
41
135
-13
-3
5
167
-13
-111
-89
-43
-21
-83
18
55
13
-3
-5
5
37
13
-109
-87
-43
-31
-39
-45
-99
-13
51
9
7
-25
-11
147
21
-101
-109
-51
-31
-47
-41
-95
-47
51
19
11
-19
-19
15
41
-83
-115
-65
-39
-35
-45
-85
-63
45
33
13
-29
-27
-5
39
-61
-115
-81
-45
-35
-45
-71
-91
29
35
7
-31
-19
-9
35
-21
-41
-31
-31
-49
-81
23
47
25
5
-1
13
45
29
-67
-61
-29
11
19
13
-29
55
109
83
61
77
101
-15
-51
-29
-3
-11
-31
-71
-45
161
7
-35
-43
-35
-29
-139
-103
-71
-57
-55
-101
-89
137
11
-95
-57
-75
-91
7
23
7
-19
-17
-13
-55
-3
-15
-25
-15
-87
-33
147
1
145
55
-78
-103
-63
-35
-21
-28
-75
-51
39
-13
5
7
51
-43
-115
-64
-31
-15
-31
25
-3
2
7
-91
-75
-37
-14
-33
-47
-75
11
52
19
9
-1
5
-81
-81
-39
-25
-19
-29
-81
1
59
-7
7
31
43
-63
-87
-45
-17
-9
-17
-63
-17
63
55
21
135
157
31
193
-27
-89
-33
-23
-3
49
27
211
133
-9
5
3
169
197
43
151
19
19
177
165
-17
-1
-5
-13
-65
19
65
39
19
5
21
45
45
-63
-79
-41
-25
-17
-25
-79
-29
65
41
5
-23
5
17
37
-73
-105
-75
-55
-35
-41
-87
-64
51
161
-9
-31
-11
-1
37
-62
-127
-83
-71
-45
-41
-83
-95
15
21
-15
-21
19
-53
-51
23
-11
-31
133
3
-125
-119
-69
-53
-115
-43
-14
25
-93
-117
-79
-54
-57
-55
-103
-73
37
137
-27
-47
-25
-1
-126
-83
-53
-43
-39
-87
-95
27
27
-31
-13
163
-29
-121
-79
-59
-57
-95
131
29
-11
-25
17
-7
-121
-60
-105
-23
169
-9
-15
-31
19
-85
-109
-65
-47
-51
-61
41
137
3
161
-73
-127
-69
-51
-43
-33
-91
-81
25
157
-7
-27
41
-35
-57
-37
-37
-53
-93
19
27
-3
-13
-25
-113
-97
-35
179
-1
-15
19
19
-93
-99
-69
-41
-46
-41
-91
-45
49
21
-7
-21
-11
1
161
-75
-111
-65
-47
-79
-61
51
37
5
-23
-15
7
37
-55
-119
-69
-45
-33
-31
-71
-79
27
-15
-21
-5
35
-9
-113
-81
-47
-33
-37
-47
-89
19
139
-107
-93
-57
-39
-33
-55
-97
-37
-9
-21
-11
19
173
-84
-103
-59
-35
-23
-43
-99
-53
169
23
5
-22
-11
11
-113
-65
-47
-37
-81
43
47
27
-3
-7
-107
-63
-41
-25
149
-7
-7
5
39
17
-99
-85
-53
-29
-27
-39
-87
3
57
15
129
-1
-13
19
34
-91
-91
-61
-33
-29
-35
-77
-27
38
11
-1
-23
-11
9
53
-85
-97
-69
-49
-23
-35
-77
-49
35
27
5
-15
-1
5
41
-55
-101
-27
-33
-57
-91
163
169
-11
43
-29
-101
-89
-53
-33
-41
-59
-105
-19
-7
149
-91
-57
-30
-31
-31
-75
9
55
39
21
63
97
-29
-45
3
37
35
29
-21
39
55
51
87
-33
-97
-61
-43
-37
-51
-89
-97
-3
-7
-29
-47
-39
-35
13
-67
-123
-111
-75
-55
-61
-79
-116
-7
35
-9
-29
-31
-9
24
-21
-121
-99
-59
-45
-49
-61
37
15
-17
-27
-9
11
23
-101
-101
-49
-35
-27
37
-19
131
11
185
-65
-107
-65
-39
-21
-41
-71
-60
45
21
-5
-15
1
3
179
-41
-107
-75
-33
-11
-13
-51
-71
-79
-41
-15
-17
-45
-75
11
55
27
1
-9
131
35
23
-83
-75
-33
-23
-21
-30
-77
-11
57
25
11
-13
-1
33
39
-69
-97
-25
-35
67
43
13
-7
7
33
67
-31
-93
-46
-25
-1
-15
-55
-43
55
49
27
7
11
25
63
9
-79
-31
-15
17
3
-29
-53
55
77
41
21
43
37
70
39
-73
-45
-21
9
11
-17
-67
37
74
41
13
23
25
51
49
-67
-59
-31
-7
-3
-17
-73
-11
59
37
9
5
17
23
59
-77
-85
-55
-33
-19
-31
-75
-47
41
29
3
-15
-21
7
163
-73
-115
-67
-45
-37
-95
21
17
133
-27
-31
-13
45
-43
-115
-87
-61
-41
-59
-73
-103
-1
31
-25
-12
13
-17
-117
-107
-67
-47
-57
-65
-109
-27
35
-1
-23
-35
13
-109
-119
-73
-55
-111
-41
25
3
-27
-43
-15
-1
27
-85
-59
-37
-45
-81
-73
31
5
-25
-29
-13
-15
35
-59
-121
-89
-57
139
25
-15
-27
-23
-23
31
-39
-124
-101
-47
-65
-93
-13
29
-23
-19
3
-91
-51
-41
-45
-47
-97
-27
39
139
-11
-15
-7
15
-109
-39
-37
-95
-51
51
23
-11
-17
-11
7
51
-47
-107
-67
-45
-29
31
-5
-15
43
-76
-47
-31
-26
-75
-87
131
37
9
-15
-23
-5
35
1
-117
-90
-49
-25
-37
-59
-93
-13
45
5
-13
-15
-15
22
27
-105
-109
-59
-35
-35
-49
-103
-39
51
7
-1
-19
-15
149
43
-91
-109
-61
-43
-51
-47
-91
-61
35
11
5
-12
51
-47
-107
-83
-39
-31
-33
-64
-91
39
37
-1
-21
-11
-7
-115
-75
-35
-67
131
-19
-7
3
33
5
-105
-81
-61
-25
-31
-47
45
29
132
-21
3
7
41
-61
-27
-31
-43
19
7
51
-76
-39
43
29
-37
-35
-59
-97
39
35
-3
-9
153
-7
-99
-77
-63
-47
-37
-59
-101
-9
33
11
-1
27
21
-109
-99
-53
-29
-27
-39
-95
-27
31
21
-11
-43
-5
9
43
-89
-115
-69
-27
-41
-55
-87
-59
23
13
5
-15
-19
3
63
-47
-87
-61
-41
-5
-7
-41
-53
69
87
55
47
61
55
119
35
-46
-15
19
23
19
-5
-51
49
69
17
3
-9
-23
15
-28
-119
-121
-91
-65
-63
-79
-115
-51
-36
-11
-3
-109
-119
-75
-55
-51
-59
-121
-57
39
5
-13
11
21
-93
-119
-61
-43
-89
17
-3
-25
-19
129
35
-39
-103
-29
-39
-60
-89
1
27
131
-23
-15
-1
39
1
-107
-91
-39
-31
-23
-57
-73
15
53
11
-9
-15
15
25
17
-97
-81
-55
-41
-67
-19
39
19
129
-7
-15
-75
-89
-54
-17
-19
-31
-77
-51
55
41
5
-23
2
21
63
-47
-103
-51
-27
-23
-21
-57
-73
67
169
5
3
53
-17
-89
-55
-35
-29
-9
-37
-83
47
43
37
7
3
17
192
35
-79
-59
-17
-5
-15
-19
-73
33
82
35
9
15
69
-14
1
-1
145
69
25
21
43
198
-51
-63
-33
-11
-43
-19
191
180
31
-67
-51
-30
-9
-23
-41
169
167
135
-37
-59
-103
-105
-109
-63
-25
-41
-59
139
31
-75
-45
-41
-61
-101
143
-15
-23
-21
-15
33
-69
-59
-49
-53
-73
-85
-23
-14
155
-9
-1
146
-9
-15
-27
17
-113
-99
-67
-47
-39
-71
-117
3
-27
-41
-23
11
15
-103
-107
-69
-37
-47
-63
-95
-59
35
7
-13
-5
29
-73
-109
-73
-59
-39
-45
-87
-103
29
25
-11
-31
-19
-11
39
-55
-123
-79
-47
-43
-53
-73
-101
17
31
5
-29
-9
-13
31
-21
-100
-95
-47
-41
-43
-57
-103
-21
31
15
-25
20
11
-99
-109
-47
-33
-103
-25
35
13
-15
-23
3
11
29
-77
-108
-57
-35
-33
-49
161
9
-11
-13
-13
-11
49
-43
-111
-87
-43
-33
-37
-73
-77
33
35
-11
-21
-8
-5
161
-31
-125
-81
-49
-27
-27
-63
-79
11
35
-9
-23
-5
-5
-111
-75
-59
-42
-33
-45
-97
-21
43
9
-5
-27
-9
29
33
-95
-97
-41
-31
-33
-41
-95
-43
51
11
-15
-27
-9
5
41
-77
-101
-59
-43
-49
-41
-77
-73
33
29
1
-9
-13
-13
177
-45
-95
-75
-45
-33
-45
-63
-90
31
31
11
-25
-9
3
47
-7
-107
-77
-27
-47
-81
31
50
17
-15
5
-5
27
21
-91
-87
-55
-27
-25
-33
-93
1
51
20
-13
-15
-1
31
43
-87
-87
-51
-11
-19
-47
-91
-25
51
21
-13
-23
37
-63
-105
-37
-45
-73
-65
18
34
5
-21
-9
-5
47
-55
-111
-79
-53
-25
-45
-77
-89
-1
27
5
-33
-25
5
27
-33
-111
-79
-49
-39
-31
-59
-107
-5
29
3
-13
-29
-15
39
9
-115
-93
-55
-31
-41
-69
-97
-19
51
7
-9
-15
-9
25
35
-91
-69
-43
-11
-9
-7
-49
-11
95
71
50
47
59
79
119
-27
31
22
-3
-41
-39
51
161
-5
-29
-27
-25
21
-99
-71
-79
-73
-101
-115
3
-3
-25
-43
-45
-33
-71
17
-3
-37
-33
-11
17
-97
-63
-29
-41
-61
-107
-17
39
129
-21
-23
29
-65
-33
-44
-43
-91
-43
29
33
-5
-33
-11
5
-103
-17
-29
-79
-73
25
43
15
9
55
-39
-93
-63
-25
-17
-47
-57
-79
11
43
13
-13
3
-5
39
5
-93
-69
-29
-15
-91
13
3
-11
-5
47
169
-77
-93
-43
-25
-17
-31
-85
-17
68
23
-13
-15
17
34
57
-57
-79
-43
-17
-23
-19
-67
-33
65
43
13
25
67
-15
-84
-47
-23
-39
-57
51
63
21
7
25
29
85
149
-85
-41
-3
-55
49
55
37
19
27
27
193
39
-77
-43
-9
135
-1
-15
-55
19
61
45
29
9
3
47
71
-69
-67
-27
-9
-9
-27
73
149
15
-19
-3
23
47
-77
-99
-63
-29
-23
-25
-63
-61
29
9
-13
-19
-17
-9
31
-49
-103
-91
-63
-47
-35
-61
-111
23
15
-23
-29
-33
-19
-119
-81
-55
-43
-49
-69
-115
5
13
-15
-29
-17
-21
7
-11
-105
-101
-47
-49
-111
-37
11
1
-27
-31
-27
-7
19
-91
-117
-73
-47
-59
-67
-101
-62
31
3
-25
-37
-21
-11
27
-75
-113
-79
-55
-51
-57
-91
-83
-1
3
1
-29
-26
-9
43
-47
-113
-87
-51
-35
-43
-94
-85
11
17
-9
-35
-21
-1
27
-31
-115
-73
-49
-35
-41
-71
-93
-9
15
5
-9
-27
-25
17
20
-117
-99
-43
-61
-115
-27
41
-3
-17
-25
-27
21
25
-101
-99
-53
-39
-41
-45
-87
-15
-23
-13
-7
34
-75
-99
-64
-49
-35
-33
-65
-91
153
21
-3
-21
-15
-9
-115
-69
-31
-27
-29
-61
-107
23
45
-1
-29
-14
21
51
3
-111
-75
-43
-31
-37
-51
-85
-9
31
8
-15
-21
-11
19
27
-81
-89
-59
-33
-29
-39
-101
-23
33
15
-5
-31
-5
15
39
-81
-109
-61
-27
-31
-51
-83
-49
27
19
7
-7
-13
7
41
-53
-107
-73
-53
-15
-33
-75
-79
25
29
-5
-9
-13
5
-93
-75
-45
-29
-33
-53
-95
15
39
133
-13
-11
-5
31
3
-95
-75
-65
-35
-31
-63
-103
2
45
4
-15
-23
-5
33
27
-95
-83
-46
-31
-29
-47
-93
-27
47
13
-11
-21
-13
11
49
-73
-92
-61
-21
-41
-41
-79
-51
49
37
-7
-23
-11
27
57
-49
-99
-51
-19
-27
-29
-67
-61
51
47
11
-7
-7
5
47
-33
-89
-59
-43
-25
-27
-65
-95
37
54
19
-13
-7
5
49
-1
-109
-67
-45
-23
-39
-47
-93
-7
51
13
-9
-21
-3
27
19
-91
-89
-43
-41
-89
-39
41
13
-5
-23
59
-77
-101
-63
-39
-33
-43
-93
-51
39
17
-15
-31
-5
-5
165
-63
-35
-31
-43
-61
-83
161
27
-11
-23
-3
-11
42
-59
-33
-23
-21
-49
-73
161
195
166
21
91
-15
23
37
173
131
7
15
39
-93
-103
-59
-53
-115
-73
149
-47
-16
23
-83
-131
-57
-59
-99
-83
-15
-33
-23
-25
23
-35
-120
-79
-49
-35
-43
-71
-87
15
19
-15
-7
33
-1
-113
-89
-49
-31
-43
-49
41
3
-25
-19
-13
15
21
-29
-39
-87
-43
169
147
-11
-23
-11
19
43
-71
-103
-35
-31
-75
-55
169
27
9
-13
11
133
51
-59
-30
-21
-27
-51
-71
31
37
135
-13
-1
145
49
3
-105
-69
-39
-15
-15
-59
-81
13
53
15
-9
-5
3
37
21
-87
-61
-33
-23
-27
-31
-87
-9
55
39
134
133
-51
-67
-62
-23
66
35
147
-25
-71
-27
-9
131
135
-45
-41
69
57
27
33
75
25
2
15
-19
-45
165
147
21
161
66
55
-73
-47
-15
-21
-77
15
64
29
15
11
17
43
59
-75
-77
-31
-37
-77
-45
45
19
43
-33
-46
-83
-77
35
-37
-33
-117
-75
-59
-45
-42
-69
-109
-1
21
-27
-19
21
-17
-109
-83
-53
-33
-47
-75
-105
-17
27
-5
-27
-37
-23
5
19
-103
-97
-63
-37
-49
-57
-91
-47
35
7
-23
-39
35
-99
-117
-63
-43
-47
-61
-97
-71
19
137
-19
-27
-43
-14
41
-75
-117
-71
-59
-41
-49
-83
141
-13
-27
-25
-15
43
-85
-53
-33
-43
-73
-109
19
15
-9
-15
-19
-5
19
-7
-95
-94
-55
-45
-39
-59
-102
-13
19
5
-9
11
19
-95
-109
-65
-45
-35
-51
-107
-49
161
9
-12
-33
1
135
37
-71
-105
-61
-31
-43
-45
-85
-61
25
29
-5
-27
-3
-3
177
-43
-107
-63
-43
-29
-35
-73
-89
13
27
9
-23
-23
-9
31
-19
-91
-89
-1
37
-5
153
13
-89
-93
-51
-31
-47
-47
-101
-23
45
3
-15
-25
-21
143
23
-79
-93
-47
-29
-27
-39
-87
-45
25
-23
3
11
49
-43
-103
-53
-29
-29
-29
-67
-73
29
145
-5
-15
-9
11
51
-35
-107
-71
-27
-63
-83
21
25
5
-31
-13
3
167
9
-103
-77
-47
-25
-27
-49
-89
3
41
11
-13
-13
-17
153
35
-87
-87
-43
-15
-23
-47
-95
-29
45
13
-5
-11
-13
21
39
-75
-85
-46
-35
-23
-43
-85
-57
37
13
-7
-23
-21
-1
55
-47
-93
-61
-37
-25
-73
43
35
5
-1
-15
1
41
-25
-91
-57
-45
-17
-25
27
39
147
-15
1
17
167
145
-87
-71
-37
-21
-23
-14
43
19
-5
-17
7
31
39
-79
-87
-55
-23
-29
-41
39
13
-9
-27
-9
9
53
-71
-95
-31
-41
-79
-61
21
145
-5
-29
-10
-11
45
-51
-91
-75
-45
-23
-39
-63
-81
-9
-9
35
-13
-47
-31
-28
-61
-97
137
-27
-1
29
-79
-45
-23
-75
-7
53
51
25
17
47
65
95
-15
39
153
33
102
72
25
29
59
-47
-55
-45
-67
-107
-103
-12
-13
-35
9
-53
-131
-13
11
-23
-23
17
-21
-109
-91
-59
-55
-107
-41
31
9
-13
-33
-15
-1
23
-81
-103
-49
-83
-41
171
13
-9
7
57
-65
-21
-39
-77
-67
-3
-29
-13
-87
-67
-31
-15
-25
-51
-83
17
37
1
-23
-3
7
47
3
-93
-63
-39
-19
-17
3
47
-17
-3
31
167
-77
-13
-21
-69
23
129
-7
131
27
59
-61
-11
-62
-47
15
131
7
31
-53
-17
-5
-15
-31
-69
23
-3
81
17
-65
-41
-3
11
-7
-14
-63
37
55
-49
-49
-17
137
-7
3
23
15
23
49
-73
-25
131
131
-13
-55
11
-3
17
-43
-87
-51
-35
-23
-27
157
33
-7
-25
-25
-11
47
-29
-107
-75
-43
-31
-46
-61
-109
-9
29
3
-25
-29
-15
19
-9
-109
-89
-49
-31
-47
-39
31
-11
-25
-39
-29
5
25
-89
-99
-65
-55
-95
-53
11
129
-33
-33
-71
-103
-73
-47
-43
-43
-95
-81
-15
-21
-115
-81
-57
-41
-103
-7
33
-21
-123
-85
-55
-45
-43
-63
-107
-13
31
-7
-27
-31
-29
7
-1
-107
-97
-45
-31
-47
-53
-97
-55
37
129
-15
-27
-23
-1
33
-79
-113
-59
-37
-37
-41
-102
-61
31
17
-15
-23
-19
-1
43
-63
-35
-29
-45
-63
-83
35
27
-11
-25
-5
-17
35
-11
-108
-65
-30
-35
-35
-47
-93
5
21
-13
-23
-23
-7
23
3
-99
-77
-39
-35
-23
-43
-95
-3
35
3
-21
-29
-7
19
23
-95
-93
-55
-27
-33
-43
-83
-47
35
17
-13
-25
53
-67
-99
-63
-45
-31
-73
161
138
-11
-43
-15
-30
-65
35
-19
-37
-47
-92
-5
41
141
-23
15
27
-99
-89
-41
-29
-39
-45
-91
13
-5
-13
43
-75
-93
-51
-31
-73
161
5
-9
-25
-11
5
177
-57
-29
-14
-13
-55
-67
-17
-7
5
41
-25
-25
-87
-5
41
11
-13
-33
5
-17
-21
-11
17
165
-77
-83
-59
-35
-31
-49
-79
-69
41
23
-49
-105
-57
-45
-21
-27
-63
-77
153
27
-9
-15
-12
-3
47
-13
-99
-65
-37
-33
-25
-47
-100
9
37
-3
-5
27
17
-101
-77
-37
-35
-21
-45
-91
-7
43
21
11
-13
11
43
69
-53
-46
9
31
27
11
-15
23
99
43
61
71
-78
-29
-49
-101
-79
-3
-13
-41
-35
11
-67
-73
-45
-57
-91
3
-27
-49
-17
-119
-97
-57
-37
-111
-31
19
-99
-30
-31
-41
-93
-31
-5
-29
-11
145
177
-71
-83
-51
-31
-27
-43
-71
-59
27
21
-9
-15
-15
-1
51
-31
-9
-31
-51
-77
35
33
-11
-91
-69
-33
-15
-21
-46
-89
159
58
13
-11
-1
13
169
17
-25
-27
-85
-25
3
-71
-65
-63
-47
179
25
3
-9
-23
-5
-15
-37
-61
59
47
37
67
9
-75
-39
-11
-27
-67
43
67
37
145
133
148
61
-3
-53
29
71
43
31
11
65
-63
-63
-17
11
-5
-15
-59
-15
65
43
17
-5
3
27
59
-47
-71
-45
-11
-11
-25
-59
-53
163
31
131
-13
-13
-1
49
-33
-106
-65
-45
-21
-31
-69
-99
23
21
-7
-41
-27
-7
25
-13
-110
-79
-53
-35
-29
-19
-31
-37
-29
-7
13
-105
-97
-59
-45
-43
-45
15
-7
-21
-45
-27
-13
21
-99
-111
-75
-43
-93
-77
23
-41
-29
-9
37
-55
-107
-75
-57
-29
-39
-69
-87
13
19
-11
-41
-33
-19
21
-29
-117
-91
-57
-39
-45
-57
-105
-15
29
-3
-29
-27
-7
23
-7
-107
-89
-65
-41
-55
-47
-111
-38
31
4
-25
-29
-19
-91
-53
-39
-43
-43
-99
-59
27
9
-19
-37
35
-71
-103
-64
-30
-31
-41
-73
-73
21
23
-11
-21
-15
-5
177
-37
-109
-67
-37
-31
-25
-55
-91
17
15
-17
-27
-25
-15
27
-15
-107
-81
-35
-17
-37
3
31
-29
-1
-95
-85
-45
-37
25
-1
-25
-25
-13
-25
-41
-87
-57
165
147
-21
11
35
-61
-109
-57
-43
-19
-35
-3
-31
-15
-11
167
-7
-91
-71
-37
-25
-21
-59
-93
145
153
-5
-25
-27
-83
-47
-23
-31
-55
-93
-15
39
1
-17
-29
-9
27
31
-87
-81
-49
-37
-29
-43
-87
-49
35
5
-11
-27
-15
5
43
-41
-31
-29
-35
-73
-75
33
23
3
-25
-27
-47
-73
161
45
129
-15
-11
-3
37
15
-87
-65
-33
-11
-17
-35
-91
21
-1
-5
5
31
37
-81
-77
-43
-29
-19
-51
-83
17
-13
-33
-1
15
35
-93
-103
-57
-31
-31
-43
-89
-64
35
17
-19
-29
-25
137
51
-61
-101
-53
-29
-21
-45
-73
-79
17
19
3
-23
-21
-9
39
-73
-55
-29
-37
-59
-17
29
13
-107
-87
-35
-14
-19
-55
-93
-3
179
5
149
55
83
-31
-37
1
35
-15
27
101
23
-49
-94
-55
-49
-99
-109
-13
-23
-41
-65
-49
-43
149
-65
-133
-95
-63
-91
131
-25
-45
-35
-25
133
-9
-121
-97
-52
-35
-41
-69
-113
-23
27
-33
-15
13
-87
-53
-37
-27
-31
-93
-41
29
4
-15
-31
37
-83
-105
-59
-31
-21
-29
-103
-61
-33
-15
-31
-61
-89
25
37
-12
-3
41
4
-87
-71
-33
-15
-17
-45
-79
21
41
23
-15
-1
-6
17
33
-71
-71
-35
-13
-13
-27
-77
-9
61
21
-5
-15
-5
-63
-73
-37
-11
-9
-29
-77
29
-1
-25
5
27
57
-31
-75
-39
-5
-9
51
17
70
-37
-7
3
-5
35
54
151
149
15
11
19
39
65
-56
-57
-28
7
131
-7
-71
-21
51
35
135
-9
5
153
57
-51
-77
-49
-21
-19
-31
-65
-53
37
27
5
-21
-15
-9
41
-33
-113
-57
-91
19
-42
-30
-9
23
-15
-103
-87
-41
-67
-115
-19
11
-1
-27
-37
-21
11
137
-93
-39
-117
-53
25
-7
147
-92
-71
-25
-45
-35
-21
169
-37
-57
-76
-91
131
19
-21
-33
-39
-33
141
-27
-111
-89
-61
-39
-112
-47
5
-101
-90
-55
-31
-37
-43
-95
-47
21
-11
-17
-39
-33
-9
39
-91
-99
-61
-43
-39
-45
-87
-55
23
1
-11
-33
-23
-5
35
-63
-97
-73
-41
-37
-43
-81
-93
9
13
-9
-33
-25
-23
39
-37
-111
-79
-47
-29
-43
-73
-101
1
17
-13
-31
-23
-7
22
-7
-95
-89
-41
-27
-29
-57
-95
-23
21
-3
-17
-21
-21
3
23
-77
-93
-43
-25
-29
-39
31
3
-15
-27
-15
5
157
-69
-33
-15
-29
-85
-71
25
15
-15
-27
-21
-5
41
-45
-101
-64
-37
-11
-31
-63
-81
37
21
-5
-35
-17
-9
37
-29
-107
-61
-42
-29
-29
-45
-91
21
23
7
-29
-15
-7
33
7
-93
-71
-47
-13
-33
-47
-95
-9
47
-25
-23
11
25
-99
-89
-49
-29
-33
-43
-89
-37
45
137
-9
-31
-25
139
51
-75
-101
-59
-27
-31
-43
-77
-59
29
17
129
-29
-12
-15
55
-46
-105
-65
-29
-13
-77
31
27
-3
-19
-9
-1
39
-9
-81
-71
-35
7
39
167
133
-91
-15
-29
-27
-99
147
-13
13
-85
-49
-29
-33
-39
-79
-59
37
9
-14
-33
-31
-7
49
-63
-99
-55
-31
-17
-39
-83
-69
21
15
-15
-35
-11
-7
47
-17
-109
-79
-35
-19
-37
-61
-79
31
35
-3
-23
-27
-11
35
7
-105
-73
-35
-23
-21
-49
-93
135
49
15
131
6
27
61
77
-29
-31
37
161
-25
17
103
69
45
33
23
19
63
-61
-97
-53
-45
-41
-59
-99
-93
13
-17
-47
-63
-39
-35
11
-83
-133
-73
-63
-47
-45
-87
-101
-24
-39
-39
-27
145
-35
-121
-29
-41
1
-25
-33
-19
21
147
-109
-95
-51
-31
-29
-43
-99
-23
31
-11
-23
-30
33
-89
-89
-27
-43
-91
-39
31
133
-13
3
45
-59
-109
-49
-23
-13
-25
-69
-65
37
29
-11
-23
-15
13
51
-35
-103
-59
-25
-55
-79
35
35
11
-29
47
-11
-91
-63
-15
-9
-21
-29
-77
17
162
-77
-67
-25
131
-3
-27
-59
-11
59
162
9
-3
131
31
57
-57
-63
-29
3
-3
-13
-59
-29
63
39
19
7
75
-27
-59
-39
-3
21
135
-47
-35
67
55
27
9
15
27
75
17
-73
-41
-1
13
11
-29
-63
49
73
19
17
63
27
-67
-51
-13
-5
137
-25
-78
9
57
31
11
-5
17
33
43
-73
-73
-29
-9
-17
-27
39
19
-13
-25
-7
129
37
-79
-109
-43
-41
-29
-39
-85
-73
29
3
-17
-43
-31
-17
27
-47
-111
-62
-47
-29
-45
-75
25
-15
-29
-27
-19
37
-31
-123
-81
-55
-25
-37
-75
-103
5
21
-17
-35
-43
-29
7
-9
-61
-43
-41
-55
-107
-31
23
-21
-27
-42
-29
-103
-93
-62
-35
-39
-43
-95
-61
-27
-47
-25
-1
35
-75
-109
-59
-41
-89
-79
145
-45
-29
-21
31
-43
-43
147
23
-13
-39
-35
-23
-55
-27
-95
-5
27
-3
-27
-33
-23
-3
17
-91
-99
-57
-23
-29
-45
-95
-33
161
3
-23
-43
-13
-13
25
-73
-99
-65
-37
-31
-37
-80
-57
23
11
-21
-35
-17
129
35
-61
-105
-65
-37
-23
-25
-65
-79
13
19
-27
7
27
-29
-99
-79
-31
-27
-41
-59
-89
-1
37
1
-31
-23
-14
22
7
-91
-75
-41
-21
-21
-55
-89
-17
163
141
-13
-29
-23
-45
-45
-91
-43
27
23
-24
-30
-11
9
43
-49
-103
-59
-31
-27
-39
-81
-65
161
23
-21
-27
-13
-3
34
-35
-99
-65
-30
-17
-25
-64
-79
17
-31
-25
-9
43
-9
-105
-81
-39
-21
-101
-7
25
137
-23
137
31
-89
-91
-33
-17
-15
-31
-9
-19
-15
15
41
-61
-81
-39
-21
-14
-29
-63
-47
39
17
-11
-23
-25
3
43
-45
-93
-45
-17
-1
-15
-51
-69
47
15
4
-17
-7
-1
41
-11
-89
-61
-33
-13
-25
-59
-99
149
165
5
-25
-21
133
-99
-79
-43
-11
-27
-55
-99
-3
35
133
-29
-39
-21
19
153
-49
-25
-35
-53
33
11
-17
7
37
-79
-111
-57
-37
-17
-39
-69
139
5
-25
-25
-23
171
-31
-89
-61
-29
-5
-9
-47
-81
39
51
19
-1
23
33
83
53
-45
-5
31
59
49
23
-29
69
101
47
21
11
22
35
19
-91
-95
-67
-45
-57
-63
-131
-64
-5
-27
-61
-67
-57
-25
133
-127
-123
-83
-61
-45
-57
-105
-69
3
-73
-35
-29
-35
-85
-95
147
-51
-31
-23
-27
-55
-95
7
21
-9
-29
-21
-19
21
1
-99
-81
-43
-29
-27
-45
-91
-15
38
17
-25
-29
-11
17
23
-71
-73
-37
-17
-28
-29
-75
-39
29
27
-11
-27
-13
-5
43
-49
-89
-47
-11
-11
-29
-62
-55
37
31
2
-21
-5
11
51
-41
-89
-43
-25
-13
-11
-47
-67
27
43
5
-5
-15
-7
51
7
-79
-69
-25
-7
-9
-27
53
11
-7
-11
9
57
35
-83
-53
-17
-13
-9
-11
-61
21
59
29
17
-3
-5
45
63
-59
-57
-13
-6
5
-3
-53
-17
65
47
147
3
9
42
81
-41
-75
-17
19
21
7
-47
-37
75
51
19
1
7
33
-69
-33
5
5
3
-31
-61
37
49
27
-7
5
-1
45
9
-89
-69
-17
-9
-7
-35
-93
7
51
134
-37
-25
1
23
13
-89
-39
-30
-47
-109
-41
33
5
-25
-32
-29
-7
27
-83
-29
-37
-43
-91
-59
13
13
-27
-43
27
-71
-119
-69
-33
-39
-55
-81
-71
15
7
-21
-31
-27
-31
-117
-81
-43
-29
-31
-63
-95
137
9
-31
-31
-39
-35
21
-9
-115
-97
-45
-37
-35
-67
-125
-25
23
-25
-41
-48
-27
21
129
-103
-107
-59
-43
-103
-45
19
-7
-31
-43
-31
-25
27
-77
-105
-59
-35
-33
-45
-93
-77
27
21
-19
-29
-19
-9
41
-63
-45
-25
-35
-83
-89
33
19
-29
-19
161
-31
-115
-67
-39
-57
25
-7
-23
-35
-25
7
141
-59
-23
-33
-37
-91
-9
29
-5
-15
-27
-21
9
35
-87
-95
-55
-17
-25
-57
-97
-45
39
7
-25
-33
-7
5
41
-69
-101
-53
-21
-25
-27
-63
-69
25
19
-1
-30
-23
-5
43
-39
-103
-57
-21
-12
-27
-57
-85
137
-43
-15
7
37
-11
-33
-19
-29
-31
-83
3
29
9
-19
-15
-13
17
147
-41
-27
-19
-29
33
149
59
-77
-91
-59
-13
-35
43
21
-13
-31
-14
-45
-91
-45
-21
-11
-63
36
163
9
-17
-1
1
35
-21
-107
-23
-15
-37
-93
1
37
5
-12
31
18
-97
-71
-25
-13
-19
-37
-97
-13
43
15
-7
-41
-17
-79
-89
-45
-23
-30
-51
-79
-31
19
-1
-27
-3
35
-57
-101
-59
-39
-25
-37
-63
-63
33
17
171
-25
-23
-93
15
-75
27
83
47
67
93
-27
-55
-13
1
-13
-25
-71
-41
29
-55
-55
-41
5
-103
-127
-89
-63
-51
-64
-107
-87
-3
-19
-35
-45
-45
-23
31
-49
-121
-95
-45
-27
-41
-71
-89
13
37
-26
-33
-21
-17
25
-23
-123
-83
-33
-23
-35
-49
-101
129
163
1
-19
-11
-14
15
11
-91
-81
-33
-31
-27
-15
-87
-35
37
9
5
-25
-13
133
177
-79
-89
-39
-27
-25
-29
-83
-41
57
17
-11
-31
-19
9
41
-61
-21
-21
-35
-61
-63
41
25
5
-5
-15
139
57
-15
-79
-51
-5
-37
-71
35
49
5
-15
-23
137
53
18
-87
-49
-19
13
-15
-25
-77
23
59
11
-7
5
3
162
43
-61
-57
-39
-1
-5
-19
-77
-11
57
49
7
35
196
-51
-75
-21
133
11
-3
-47
-29
197
175
25
129
11
177
71
-27
-75
-23
15
17
-37
49
59
37
-1
70
145
-65
-31
-3
15
15
-11
-61
45
61
39
17
9
5
45
37
-69
-63
-9
-31
-93
9
69
145
-7
-15
-15
23
-84
-57
-21
-19
-33
-15
-31
-15
-81
-37
-45
9
131
-21
-27
27
-73
-42
136
25
-11
-45
-43
-41
9
-23
-109
-101
-63
-65
-117
-9
39
-37
-23
17
7
-115
-97
-67
-35
-41
-39
-95
-39
29
-9
-31
-31
-33
-11
20
-79
-107
-69
-49
-29
-37
-79
-79
19
7
-17
-41
-31
-15
47
-69
-127
-67
-35
-28
-41
-69
-95
19
27
-15
-31
-13
-17
31
-29
-113
-83
-39
-29
-31
-53
-97
-15
23
3
-21
11
-3
-107
-107
-47
-45
-105
-29
-21
-25
143
-29
-49
-91
-45
-15
-35
-17
-14
27
-67
-95
-12
-31
-55
-79
133
-23
43
-33
-41
-15
-29
129
27
129
-13
19
7
-23
-43
-107
-11
33
-5
-23
-27
-27
19
11
-95
-81
-43
-19
-21
-41
-91
-39
41
7
-27
-39
-21
-9
29
-71
-95
-55
-37
19
23
-1
-27
-21
-17
-103
-71
-43
-27
-27
-55
-83
19
165
-9
-25
-27
-13
43
-17
-109
-65
-13
-5
-23
-45
-85
145
29
-19
-23
19
9
-91
-89
-45
-27
-75
-31
161
17
-7
-21
-19
-25
47
27
-5
3
51
-51
-105
-45
-27
-17
-29
-59
-67
-11
-109
-64
-27
-13
-29
-49
-83
11
27
-1
-23
-23
-15
15
11
-101
-25
-27
-41
-87
-21
35
9
-21
-43
-25
7
18
-99
-106
-65
-13
-29
-43
-79
-27
51
19
5
-9
9
33
73
-35
-47
-7
27
41
31
-7
135
99
81
54
145
13
31
65
-31
-103
-76
-51
-29
-45
-93
-115
-13
-3
-41
-69
-63
-47
-19
-63
-137
-95
-75
-51
-67
-75
-103
-14
11
-13
-61
-39
-39
-11
129
-111
-99
-61
-41
-39
-51
-97
-43
43
19
-25
-35
-33
11
39
-103
-109
-51
-15
-25
-39
-85
-41
33
-27
39
-65
-101
-57
-23
-17
-25
-61
-64
19
17
5
-5
169
-71
-27
-5
-3
-41
-93
27
49
5
-21
-21
2
51
133
-33
-3
-19
-33
-79
-9
193
-29
-13
-15
-61
17
-3
-13
-15
17
57
-53
-91
-53
-43
167
31
9
-27
-63
-53
-11
13
5
-31
-77
41
57
23
133
131
149
67
11
-85
-45
-7
15
15
-23
-63
43
63
39
-5
-7
15
43
25
-61
-45
-13
13
13
1
-51
3
65
163
147
-5
3
27
65
-43
-71
-10
131
-43
-39
57
167
131
-1
-13
129
-92
-55
-29
-53
49
29
-14
-29
-25
-11
47
-33
-33
-15
-23
-59
-91
-1
151
-13
-25
5
-25
-95
-91
-61
-31
-25
-39
-115
-27
11
-11
-25
-45
-31
129
21
-110
-105
-55
-35
-25
-41
-103
-49
25
3
-29
-17
-57
-47
-51
-79
-75
9
145
-7
-43
-107
-37
-44
-61
-101
-1
134
-31
-29
-15
-121
-79
-53
-21
-23
-65
-103
-9
-31
3
-15
-105
-93
-63
-21
-37
-51
-91
-47
25
-9
-37
-41
-17
-27
17
-91
-97
-59
-39
-45
-23
-77
-91
-15
-31
-53
-17
43
-55
-95
-59
-47
-23
-37
-79
-81
35
25
130
-41
-39
-28
35
-45
-113
-69
-53
-7
-37
-67
-75
9
25
-11
-39
-31
-21
21
3
-101
-79
-59
-25
-19
-31
-97
-11
161
-5
-21
-45
-33
15
21
-107
-95
-59
-29
-85
-35
27
-3
-13
-37
-23
9
19
-83
-89
-57
-25
-17
-31
-59
-63
31
33
-45
-107
-67
-27
-25
-13
-49
-87
145
33
-13
-31
-27
-11
34
-3
-113
-83
-27
-17
-31
-33
-91
19
165
3
-25
-15
-25
5
13
-93
-75
-31
-25
-15
-23
-75
-15
37
21
-7
-9
-13
7
183
-67
-89
-47
-31
-15
-27
-73
-47
63
22
-15
147
55
-63
-23
-1
-25
-63
-69
23
35
-7
-35
-19
-5
146
-37
-100
-21
-31
-31
-93
5
21
-9
-11
33
-3
-105
-73
-25
-37
-95
-29
-95
-53
-23
-23
-37
45
135
-27
-31
-14
-59
-95
-45
-15
-11
-13
-61
-41
55
133
147
35
75
-1
-45
-7
159
45
51
23
-9
83
95
27
29
49
137
-81
-87
-29
-31
-39
-65
-111
-57
-61
-53
-31
23
-1
-43
-57
149
-75
-113
-65
-41
-37
-27
-11
43
-57
-97
-69
-45
-75
147
-13
-25
-11
23
-5
-107
-78
-14
7
35
131
-87
-15
-29
-77
-17
55
13
-23
-25
-27
141
49
-91
-89
-45
-11
177
-29
-9
-1
-15
-23
31
19
-15
-9
39
-29
-83
-57
-31
-5
-17
-41
-77
27
47
11
-9
-15
-7
33
15
-79
-69
-43
1
13
-21
-75
17
63
19
5
-21
137
34
47
-59
-63
-13
-13
1
9
-57
-11
73
43
8
-9
13
19
65
-31
-83
-19
7
17
3
-47
-31
63
63
17
-13
19
25
55
-15
-81
-39
-25
6
1
51
55
7
-11
-7
5
65
-7
-93
-59
-23
-5
-3
-45
-79
21
39
-5
-33
-13
-11
17
-9
-109
-83
-61
-35
-31
-37
-87
-25
25
7
-43
-57
-29
3
17
-117
-101
-63
-37
-23
-49
-93
-33
33
-11
-37
-43
-47
-11
25
-101
-103
-73
-51
-35
-31
-79
-75
15
5
-25
-35
-41
-27
51
-57
-29
-73
-95
149
-41
-35
-25
19
-41
-109
-95
-45
-29
-45
-61
-95
1
5
-27
-37
-43
-45
-11
-15
-99
-97
-59
-43
-31
-37
-121
-45
37
-9
-27
-43
-39
-13
5
-105
-103
-61
-41
-33
-35
-89
-57
35
133
-23
7
19
-73
-111
-61
-43
-29
-15
-61
-63
19
25
-11
-31
-29
-17
31
-43
-99
-71
-47
-15
-17
-67
-79
27
33
-9
-41
-39
-25
19
-15
-110
-77
-49
-21
-29
-47
-77
-15
31
-3
-23
-33
-31
3
11
-93
-87
-49
-23
-37
-41
25
7
-15
-31
-27
137
35
-73
-111
-57
-13
-25
-43
-77
-60
171
21
-21
-31
31
-65
-49
-37
-19
-69
-95
155
19
131
-45
-31
129
145
-19
-105
-17
-45
-27
135
-11
165
145
-9
-23
-15
2
43
-79
-111
-47
-29
-3
-15
-79
-47
57
19
3
-43
-29
-60
-95
-53
-69
37
45
1
-35
-11
-9
163
-19
-105
-57
-15
-21
-5
-45
-77
33
43
-7
-21
-27
-23
29
21
-105
-75
-47
-31
-83
-13
162
-5
-9
-17
-29
133
153
-97
-93
-61
-25
-25
-47
-1
33
-77
-113
-62
-31
-23
-41
-78
-65
35
21
-15
-41
33
-51
-105
-71
-45
-29
-97
21
23
-5
-25
-35
-89
45
83
49
-23
-15
145
43
51
31
-30
15
71
149
-111
-47
-53
-59
-105
-89
15
-11
-37
-31
5
-83
-131
-79
-39
-69
11
-9
-25
145
-27
-105
-75
-29
-51
161
3
-31
-29
-25
15
15
-107
-91
-53
-25
-17
-15
39
129
-14
-37
-14
3
33
-91
-93
-53
-27
-13
-14
-71
-45
163
9
-9
-25
-11
-3
39
-11
-13
-15
133
55
-21
-31
-75
35
161
23
-9
-13
3
29
31
-73
-63
-25
-5
-9
19
63
147
-1
-13
-5
-37
-5
7
-7
-57
-17
63
-3
-1
19
61
-31
-3
15
-1
-27
-31
63
63
39
7
17
31
55
-21
-73
-39
5
15
17
-5
-51
45
69
17
27
65
23
-59
-37
7
27
5
-5
-55
43
69
51
7
133
135
39
37
-63
-65
-15
131
-11
-3
-63
5
65
162
137
-13
-1
15
49
-65
-83
-55
-21
-23
-27
-75
-31
31
27
-7
-31
-19
-11
31
-51
-109
-69
-31
-23
-31
-64
-65
15
19
-15
-41
-33
-29
23
-31
-127
-81
-49
-29
-29
-55
-95
9
35
-11
-37
-23
-23
15
-9
-123
-95
-53
-43
-23
-53
-95
-15
153
-13
-27
-41
-31
5
3
-127
-109
-65
-27
-31
-39
-91
-47
27
-1
-29
-43
-41
-11
23
-99
-121
-63
-33
-39
-41
27
-7
-17
-45
-113
-81
-53
-31
-27
-61
-83
-13
-45
-29
-25
17
-27
-123
-89
-49
-29
-15
-57
-91
-9
-39
-29
-19
11
-3
-105
-87
-65
-27
-23
-41
-95
-19
-29
-43
21
-111
-41
-27
-45
17
-9
-33
-33
-9
31
-85
-113
-65
-27
-33
-41
149
-31
-19
27
-33
-111
-69
-31
-17
-25
-49
-83
33
29
-1
-27
-27
-13
13
-3
-89
-77
-46
-27
-13
-31
-87
137
53
-3
-17
11
29
-95
-91
-57
-21
-21
-15
-79
-35
43
-29
33
-89
-93
-59
-35
-21
-23
-65
-53
27
25
1
-23
-103
-61
-27
-13
-15
-39
-75
31
43
7
-21
-11
3
45
-11
-95
-63
-21
-11
-21
-43
-81
25
43
15
-14
-23
-21
-89
-85
-29
-21
-29
-33
-87
-13
39
11
-17
-27
-23
131
31
-81
-95
-57
-27
-27
-33
-75
-44
31
27
-15
-9
33
-53
-99
-61
-39
-19
-15
-45
-67
19
19
-23
-29
-14
-15
39
-29
-99
-65
-35
-23
-27
-59
-85
17
33
-9
-27
-17
-11
41
139
-27
-3
-11
-23
-61
25
81
43
161
21
31
-27
-21
27
43
33
163
-17
15
85
39
137
-17
-21
-9
15
-89
-59
-109
-94
139
1
-45
-69
-51
-41
11
-67
-133
-79
-69
-39
-33
-63
-95
-27
-43
-29
-29
151
-27
-117
-87
-47
-23
-31
-60
-91
-31
-31
-39
41
7
-22
-25
-27
-45
35
37
51
-33
-99
-53
-27
-14
-11
-57
-59
161
-19
-15
-13
-75
-27
1
143
181
145
25
-15
59
27
-3
-21
-5
13
47
-65
-45
-37
47
27
3
-13
129
11
195
-37
-91
19
3
11
-69
-41
-3
11
17
3
-65
43
71
33
129
19
17
139
201
49
11
-5
11
23
59
-60
-69
-19
-1
53
33
5
-53
-105
-59
-29
27
-31
-111
-71
-41
-23
-43
-49
153
-9
-39
-119
-107
-63
-39
-39
-49
-91
-25
33
-7
-31
-37
-33
-109
-109
-75
-41
-79
-49
23
5
-37
-47
27
-75
-125
-79
-41
-29
-43
-71
-75
17
3
-25
-47
-42
-37
133
-65
-111
-99
-47
-31
-39
-63
-99
7
147
-13
-41
-29
-25
-119
-85
-51
-41
-29
-49
-101
-9
29
5
-33
-39
-39
3
-3
-109
-95
-55
-35
-37
-33
-95
-45
41
-19
21
-83
-117
-61
-45
-31
-33
-71
23
-19
-31
-25
-21
163
-53
-109
-71
-39
-25
-27
-73
-69
25
27
-11
-35
-21
-23
153
-23
-113
-85
-41
-15
-31
-47
-99
3
27
-3
1
-91
-37
-25
-23
-31
-89
-31
47
17
-39
165
19
-9
-31
-13
-11
-27
-9
-17
-59
-9
-25
-9
-30
161
-23
-95
-75
-35
-41
-77
23
171
11
11
5
-13
-13
59
23
167
-78
-87
-41
-17
-13
-35
-59
-31
21
15
-13
-31
-13
-13
41
-59
-109
-65
-35
-25
-25
-47
-61
27
23
-23
-27
-21
-25
25
-41
-117
-67
-31
-21
-17
-59
-76
23
27
-33
-25
21
-23
-113
-91
-47
-15
-21
-59
-81
-11
23
-7
-27
-31
-29
-5
-7
-117
-103
-65
-29
-25
-37
-79
-25
179
11
-14
-13
-19
25
55
-57
-57
-11
26
165
37
-9
9
111
89
67
33
47
47
91
-9
-73
-29
-25
-15
-23
-63
-85
-29
-57
-59
-47
-13
-63
-67
-45
-57
-75
-111
-3
23
-23
-45
-37
-37
3
-13
-61
-33
-31
-49
-91
-5
23
-5
-27
-45
-31
-6
22
-91
-101
-59
-27
-25
-41
-81
-29
37
15
-25
-29
-21
-13
39
-79
-99
-59
-29
-15
-25
-65
-49
27
19
-13
-31
-21
-15
27
-55
-89
-65
-29
-21
-15
-43
-75
27
39
9
-13
39
-19
-111
-65
-30
-17
-15
-33
-79
23
51
9
-15
-23
-11
35
7
-85
-73
-31
-15
-15
-15
65
31
1
-21
-9
31
-95
-33
-15
-13
-5
-65
-29
55
161
3
-17
-9
7
55
-41
-89
-47
-15
9
7
-37
-41
41
165
15
-1
135
135
55
131
-89
-45
-11
11
22
-15
-47
63
69
23
3
11
13
57
-45
-15
149
143
-17
-45
23
77
35
133
-5
9
39
47
129
5
-5
-47
-12
73
31
5
-11
-1
21
51
-73
-95
-41
-17
-19
-19
-59
-47
-5
-29
-25
-13
39
-47
-115
-59
-45
-17
-77
35
143
-9
-31
-29
-25
133
-27
-123
-91
-45
-31
-35
-53
-95
17
11
-11
-39
-41
-17
-1
-9
-119
-103
-63
-47
-103
-23
31
-13
-45
-33
-107
-69
-35
-94
-53
23
11
-29
-45
-91
-109
-86
-41
-31
-43
-75
-83
13
7
-23
-51
-39
-29
17
-65
-113
-87
-29
-31
-45
-57
-99
3
19
-19
-45
-43
-89
-47
-27
-35
-7
-29
5
-27
-25
-37
-67
-37
-27
-37
155
-35
-31
-11
-85
19
-37
-31
-87
-87
19
39
1
-31
-27
-29
3
145
-21
-21
-15
-87
-15
53
149
-17
-29
-15
-5
37
-94
-29
-31
-37
-69
-61
-11
-67
-37
-15
-75
39
39
3
-33
-29
-27
23
-25
-101
-89
-47
-17
-15
-41
-95
31
33
1
-27
-31
-27
11
-7
-95
-83
-47
-17
-21
-23
-79
-5
41
7
-19
-35
-19
5
21
-81
-93
-51
-29
-23
-25
-71
-27
39
31
-15
-21
-5
-1
39
-63
-105
-57
-31
-14
-13
-45
-63
37
26
-11
-15
-15
-7
37
-45
-111
-65
-27
-46
-63
29
-17
161
129
-99
-87
-33
-13
-25
-41
-85
129
43
-1
-23
-95
-21
-27
-23
-87
-27
181
21
-9
-3
33
-71
-103
-55
-33
-17
-23
-63
-51
161
21
-25
-27
33
-53
-121
-65
-29
-25
-23
-71
-65
-7
-31
-33
-19
163
-11
-41
-12
53
23
9
9
15
53
51
-45
-31
13
41
-13
53
130
83
51
-59
-81
-59
-35
-28
-43
-105
-75
27
-15
-47
-61
131
-91
-65
-57
-45
-79
-83
-39
-41
-135
-81
-47
-65
-77
7
-29
-23
-117
-85
-45
-25
-23
-35
-87
11
-9
-25
-17
-23
-21
54
25
-15
-41
-14
135
35
-65
-13
-63
-53
162
34
-109
-60
-31
-13
-15
-53
-73
5
-9
35
11
-107
-65
-29
-9
-15
-35
-75
11
59
146
-7
-23
-15
-25
-9
-11
153
43
-59
-85
-29
1
-5
5
59
49
11
-13
131
-21
129
-9
-41
53
59
21
11
6
15
65
35
-75
-47
-7
23
23
-15
-39
53
65
31
15
6
7
49
49
-75
-59
-11
17
11
-15
-49
11
69
29
7
-9
1
21
43
-89
-79
-45
-5
-11
-21
-63
-41
59
19
-17
-29
-107
-59
-30
-19
-27
-71
-81
155
-53
-39
-47
-89
23
-41
-41
-19
5
-9
-111
-93
-45
-35
-35
-51
-103
-9
31
-7
-47
-43
-43
-15
11
-113
-111
-61
-29
-37
-45
-101
-37
29
27
-85
-115
-71
-45
-91
-31
-31
145
-73
-107
-87
-37
-19
19
-31
27
-33
-105
-85
-45
-25
-31
-47
-95
5
25
-9
-33
-53
-35
-1
-91
-53
-39
-94
-27
19
7
-14
21
-95
-29
-41
163
17
-31
-51
-27
-23
34
-59
-33
-13
-25
-53
-65
33
159
-11
-39
-109
-73
-41
-21
-23
-47
-77
21
45
7
-27
-35
-15
37
-21
-105
-75
-33
-23
-30
-31
47
3
-23
-35
157
-91
-97
-25
-37
-25
-5
165
-77
-109
-65
-29
-77
-61
31
27
-14
-27
157
-73
-31
-51
-95
145
167
-11
-29
-29
-87
-11
45
7
-23
-45
-27
7
149
-93
-95
-49
-27
-21
-27
-73
-25
37
17
-15
-33
-29
-11
29
-69
-107
-55
-21
-13
-31
-63
-47
29
19
-19
-29
-13
-9
41
-33
-101
-59
-27
-7
-13
-37
-65
39
35
-5
-19
-17
-9
33
-5
-103
-64
-27
-7
-13
-17
-79
23
47
13
-25
-19
-1
19
15
-99
-73
-31
-21
-1
-23
-75
133
47
13
-13
-30
-17
7
23
-97
-85
-49
-21
-7
-23
-77
-29
43
7
-27
-31
-21
-9
31
-81
-107
-55
-27
-13
-31
-75
-55
39
34
-17
-39
-15
-15
39
-47
-117
-63
-25
-11
-21
-61
-75
31
33
-13
-45
-15
-15
31
-19
-119
-77
-41
-14
-17
-47
-79
23
45
7
-29
-23
-7
33
145
-97
-57
-11
19
21
5
-39
59
109
77
51
35
43
83
87
-33
-29
141
-3
-59
-29
47
11
-31
-53
-55
-39
5
-115
-139
-79
-57
-55
-65
7
-11
-42
-53
-61
-31
3
-65
-125
-93
-45
-37
-35
-71
-89
33
19
-19
-55
-29
-33
15
-27
-121
-95
-57
-15
-17
-47
-83
23
37
-9
-35
-35
-15
5
5
-111
-89
-53
-13
-15
-25
-85
-14
39
5
-23
-7
31
-49
-13
-23
-17
-69
-47
39
31
-13
137
51
-57
-97
131
-15
51
33
3
-21
-23
-23
-33
-5
139
-11
-11
11
-65
-31
-7
-3
-11
27
-5
-15
-7
-83
-79
-33
3
-5
-19
73
23
63
-45
-73
-31
3
7
7
-29
-41
75
-1
194
15
-83
-19
-61
63
9
9
23
51
29
-63
-39
-7
18
19
135
-59
24
193
33
7
-7
141
37
45
-73
-59
-23
-1
-25
59
35
5
-23
-9
5
45
-75
-111
-51
-15
-14
-31
-63
-53
130
-31
-41
-11
39
-59
-109
-83
-43
-15
-41
-57
-77
-13
-37
-37
-27
17
-23
-109
-81
-47
-35
-25
-45
-95
19
-39
-45
-29
5
-10
-99
-93
-59
-39
-83
-25
33
131
-31
-41
-37
-111
-109
-73
-37
-85
-55
27
23
-17
-47
161
-77
-123
-67
-41
-27
-39
-71
-73
13
15
-15
-31
-25
-30
25
-47
-113
-85
-43
-23
-35
-61
-93
5
25
-9
-35
-29
-27
13
-15
-111
-99
-47
-25
-35
-49
-87
-13
35
-1
-33
-37
-33
-13
15
-87
-89
-49
-33
-27
-27
-91
-39
53
3
-33
-39
-37
-11
19
-61
-29
-23
-29
-73
-61
51
161
-7
-41
-19
-9
-123
-61
-19
-59
-78
25
33
-7
-35
-29
-13
37
-17
-111
-67
-33
-17
-25
-45
37
5
-31
-33
7
-117
-77
-33
-23
-15
-21
-87
-11
39
11
-23
-21
-25
5
36
-99
-91
-49
-25
-15
-33
-73
-29
33
19
-11
-43
-30
-7
41
-79
-91
-63
-19
-9
-28
-61
-55
37
33
1
-33
-29
-15
31
-43
-95
-83
-29
-7
-19
-47
-75
27
35
-5
-25
-27
-13
17
-11
-105
-73
-35
-5
-11
-33
-85
13
49
13
-25
-33
-13
31
9
-91
-79
-47
-25
-19
-33
-79
-21
57
29
-19
-35
-11
17
35
-33
-9
-13
-9
-69
-33
59
39
-7
-39
-21
133
43
-55
-101
-51
-13
-5
-15
-45
-57
49
43
5
-21
-5
-9
177
-23
-113
-71
-25
-11
-11
-43
-65
163
39
9
-19
-25
-15
27
-5
-107
-81
-41
7
-23
-37
-69
7
-25
19
-91
-41
-21
-21
-31
-76
-27
47
9
-19
-35
-23
-73
-103
-67
-27
-23
-27
-65
-61
49
21
-11
-15
-23
-13
33
-61
-31
-8
-11
-41
37
17
-13
-9
153
195
29
-59
-19
21
43
43
19
-17
87
115
81
45
161
41
66
40
-41
-13
-31
-47
-109
-31
17
-15
-41
-63
-59
-87
-47
-41
-47
-89
-45
-51
151
-65
-37
-25
-23
-55
-83
37
153
-5
-37
-27
-37
-19
-15
-47
-71
-29
-13
15
137
-101
-7
-25
-67
-1
51
-25
-13
20
45
-79
-91
-45
-17
-7
-21
-69
-31
59
34
-5
-29
-14
-51
-95
-39
-19
-9
-7
-43
-59
51
161
41
-11
-97
-59
131
-31
-59
51
-7
-9
146
-89
-63
-25
133
5
-13
37
7
39
173
-75
-63
-13
7
-41
-13
153
137
-1
19
59
-45
-65
-25
129
-21
-27
81
67
147
31
73
-9
-85
-41
-3
29
23
-15
-45
67
75
31
7
133
17
65
33
-73
-53
-9
17
5
129
-63
25
71
35
7
137
-1
33
49
-79
-65
-28
-13
2
-27
-71
-5
54
25
-11
-27
-23
-1
35
-63
-27
-15
-35
-73
-73
-51
-77
33
-33
-129
-99
-63
-47
-103
1
161
-109
-45
-29
-49
-41
-17
-107
-31
-13
-57
-119
-43
-87
23
-29
-29
-27
17
-31
-123
-83
-43
-53
-83
5
39
-11
-31
-41
-27
11
137
-111
-95
-57
-19
-25
-29
-85
-31
43
13
-23
-39
-31
-9
23
-89
-97
-57
-29
-29
-27
-75
-51
45
25
-22
-31
-41
-13
35
-63
-103
-57
-35
-27
-23
-61
-73
43
29
5
-19
-43
-23
37
-39
-107
-63
-15
-43
-73
33
35
5
-29
17
-91
-45
-15
-17
-35
-85
15
179
17
-19
-29
-17
17
17
-53
-21
-15
-29
-87
-23
41
19
-11
-35
-13
-9
25
-83
-105
-55
-27
-13
-17
-61
-43
39
31
3
-25
-19
-9
37
-61
-105
-67
-39
-13
-15
-53
-63
161
39
5
-29
-17
-19
19
-27
-109
-77
-37
-11
-13
-41
-81
19
49
17
-27
-29
-3
-97
-91
-43
-21
-23
-25
-73
17
-10
-28
-21
15
35
-71
-83
-43
-15
-7
-19
-63
-29
-11
-29
-5
-9
37
-55
-99
-57
-29
-23
-15
-61
-61
41
35
4
-21
-11
-11
33
-33
-103
-69
-31
-13
-17
-63
-75
27
37
5
-27
-29
-17
29
-19
-114
-81
-41
-11
-13
-43
-77
11
49
15
-21
-31
-29
15
17
-103
-91
-53
-21
-85
-25
49
15
-9
-33
-33
-1
33
-61
-31
-61
-47
53
-5
-15
2
57
-33
-75
-25
11
49
-13
109
95
64
31
37
53
89
161
-63
-35
-13
-55
-99
5
25
-25
-61
-63
-51
-13
-131
-85
-55
-49
-63
-123
-15
-45
-61
-61
-121
-45
35
11
-47
-11
35
-83
-115
-73
-41
-17
-27
-63
-65
31
25
-11
-28
-23
-43
-107
-77
-43
-9
-15
-46
-79
49
183
129
-17
-15
3
35
9
-99
-77
-37
-13
-75
7
53
19
5
-29
-21
137
23
-95
-81
-37
-11
-58
-25
-25
141
43
-11
-15
-57
-53
135
-27
-95
-59
-29
-9
5
-43
-63
53
49
145
-13
-15
131
37
5
-99
-61
-19
130
139
-13
63
33
145
33
165
-83
-79
139
-9
-47
139
209
47
197
-37
-75
-29
3
21
17
-25
-23
81
61
27
139
3
149
-79
-41
3
21
157
-27
-49
65
193
35
131
-1
5
39
-55
-75
23
55
25
-7
139
5
-23
-21
171
11
-9
-33
-41
-9
21
-103
-111
-63
-43
-29
35
9
-23
-43
-40
-73
-111
-77
-53
-25
-31
-61
-85
29
17
-9
-43
-35
-35
7
-39
-123
-97
-43
-23
-99
9
31
-7
-33
-47
-37
-1
-7
-123
-109
-59
-39
-29
-43
-91
-21
27
-7
-25
-47
-47
-13
11
-119
-111
-63
-37
-27
-39
-77
-51
37
7
-27
-41
-39
-17
31
-79
-119
-71
-43
-29
-39
-77
-76
33
161
-7
-37
-37
-23
152
-62
-113
-87
-53
-31
-25
-57
-89
25
34
-3
-25
21
-29
-111
-89
-51
-29
-27
-43
-91
-7
163
3
-25
-47
-27
-13
-1
-105
-97
-57
-31
-35
-29
37
7
-17
-37
-31
-11
25
-93
-110
-63
-31
-23
-29
-75
-39
47
21
-15
-35
-27
-13
34
-67
-115
-77
-37
-15
-29
-61
-61
37
35
-11
-31
-33
-22
27
-31
-123
-87
-43
-21
-21
-43
-77
23
41
-11
29
-9
-109
-85
-37
-23
-21
-39
49
15
-23
-41
-37
-13
19
-101
-95
-21
-15
-73
-29
49
18
-13
-31
-37
-9
25
-91
-110
-19
-17
-61
33
-5
-37
-25
-13
33
-55
-113
-61
-27
-15
-13
-49
-85
33
33
-1
-31
-29
-15
23
-25
-111
-79
-39
-5
-9
-47
-69
19
47
13
-14
-27
-11
27
18
-101
-77
-45
-5
-9
-21
-71
5
53
27
-1
-25
-29
-3
-29
-25
-17
-3
39
-75
-111
-61
-31
-17
-71
39
-23
-13
161
-43
-111
-81
-43
-23
-19
-45
-83
21
35
129
-25
-41
-29
15
-21
-107
-85
-47
-23
-13
-35
-84
-3
31
15
-21
-37
-19
-7
19
-93
-23
-33
-79
19
-15
31
-77
-113
-35
177
49
147
-5
19
152
64
130
-55
-15
23
41
45
149
-13
95
243
67
31
23
17
59
-5
-101
-75
-53
-33
-46
-59
-105
-23
149
-73
-55
-133
-125
-79
-51
-49
-47
-91
-41
11
3
-27
-55
-41
-30
145
-93
-117
-75
-33
-37
-41
-85
-55
39
11
-11
-25
31
-63
-115
-75
-38
-23
41
-5
-31
-21
-29
163
-27
-117
-79
-43
-13
-19
-39
-69
145
43
13
-27
-33
-23
11
3
-99
-79
-39
-27
-15
-23
-87
-15
49
23
-14
-21
-17
13
25
-85
-91
-55
-25
-67
-33
65
-25
-23
-69
-107
-47
-19
-1
-3
-49
-43
59
53
139
-13
-19
131
45
-21
-99
-55
-37
-3
-7
-25
-61
11
-3
5
5
41
19
-93
-65
17
-25
-55
161
64
39
15
1
139
36
41
-75
-64
-19
4
13
-3
-55
19
87
51
23
1
3
37
55
-47
-67
-25
-1
-31
-19
79
5
3
64
-29
-91
-43
-5
19
-51
63
51
27
11
-15
7
39
-24
-89
-61
-29
1
-10
-31
-67
39
47
19
-23
-17
-21
17
5
-103
-87
-51
-23
-27
-37
-83
-3
43
5
-23
-35
-37
-5
19
-107
-113
-31
-31
-87
-41
33
7
-29
-49
-31
-15
27
-87
-121
-79
-37
-25
-29
-79
-67
29
19
-21
-47
-31
-31
21
-52
-127
-77
-55
-31
-91
135
-47
-45
-39
5
-35
-123
-97
-45
-29
-27
-45
37
-47
-39
7
-9
-124
-107
-59
-35
-35
-51
-101
-35
41
3
-25
-37
-43
-17
21
-95
-35
27
-75
-125
-64
-76
21
25
-9
-35
-37
-25
21
-41
-109
-93
-37
-35
-29
-45
33
133
-5
-55
-29
39
15
-11
-5
-105
-61
-39
-29
-25
-75
-43
41
17
-13
-45
-25
-15
163
-49
-111
-69
-41
-23
-17
-67
-79
31
37
1
-27
-15
-31
33
-43
-123
-83
-43
-15
-21
-43
-71
17
35
-1
-25
-37
-37
141
-15
-111
-95
-53
-31
-27
-31
-85
17
-15
-11
145
-103
-95
-59
-31
-73
-29
53
23
-7
-29
-29
-1
27
-77
-105
-71
-21
-69
-61
57
33
-11
-21
-29
-21
35
-45
-43
-21
-13
-51
-71
35
165
-17
-17
-107
-78
-25
-17
-5
-27
-73
153
51
21
-1
-19
-15
19
13
-101
-81
-41
-25
-75
-13
55
-29
43
-91
-91
-27
-47
43
25
-9
-19
35
-61
-21
-53
-73
51
49
131
33
-27
-111
-29
-27
1
-17
-31
-27
-27
-41
-79
7
-13
-33
-43
5
147
-101
-29
-73
-45
51
21
-7
-14
-17
13
-9
-13
233
53
45
143
-23
-77
27
27
-51
-117
-85
-63
-57
-63
-112
-13
-33
-29
11
-111
-117
-81
-47
-91
-59
-39
-13
17
-91
-47
-63
-63
27
29
129
-29
-23
-19
35
-33
-115
-71
-39
-29
-13
-53
-73
27
37
7
-15
25
-77
-43
-27
-17
-29
-77
13
-3
-24
-21
13
155
-93
-99
-53
-27
-15
-33
51
23
1
-31
-31
9
33
-75
-107
-55
-21
-13
-7
-55
-47
189
45
13
-3
-17
129
-53
-29
-15
-11
-37
59
23
-9
-5
-7
165
147
-95
-69
-19
-7
131
-30
-59
5
-1
-1
29
35
-79
-77
-30
3
17
-1
-55
-5
79
145
-75
-21
-3
13
-19
217
199
39
133
137
23
57
-27
-3
143
137
-25
61
163
-5
131
-7
45
-7
-91
-59
7
-31
-63
31
53
-17
-11
149
-97
-47
-31
-25
-39
-85
-31
169
19
-17
-31
-35
-31
19
-95
-109
-69
-45
-43
-29
-83
-61
39
19
-17
-33
-45
-29
21
-79
-123
-65
-54
-35
-31
-67
-83
23
11
-13
-37
-33
-39
15
-55
-127
-91
-57
-37
-37
-61
-99
-13
-41
-43
-33
-1
-29
-119
-13
-25
-43
-27
-3
-1
-109
-115
-69
-35
-29
-37
-89
-35
-45
-29
23
-45
-25
-37
-35
-27
27
-69
-129
-89
-59
-97
21
21
-3
-41
-119
-93
-57
-37
-35
-53
-25
133
5
-115
-100
-61
-21
-27
-33
-93
-21
-5
-29
29
-89
-105
-61
-35
45
27
-9
-29
37
-57
-121
-67
-41
-59
39
3
-33
-30
-25
27
-43
-123
-83
-43
-23
-31
-41
-83
25
43
11
-13
-27
-30
17
-7
-101
-85
-53
-27
-29
-35
-85
-1
39
21
2
-25
-19
-9
17
-85
-105
-65
-29
-25
-21
-63
-29
55
15
-15
-25
-23
-85
-105
-64
-35
-27
-9
-53
-47
49
33
-5
-25
-13
-17
-109
-69
-31
-13
-71
29
47
21
-15
-13
-15
21
-9
-91
-77
-45
-15
-11
-17
-73
7
55
149
-21
-19
-15
135
11
-99
-94
-57
-29
-21
-27
-75
-23
45
17
-9
-31
-27
-5
13
-101
-105
-65
-39
-29
-23
-63
-59
51
27
-11
-30
-19
-5
27
-71
-115
-63
-43
-27
-21
-43
-69
35
33
1
-11
-29
-27
21
-51
-109
-63
-43
-25
-17
-46
-78
35
43
5
-17
-31
-26
25
-5
-101
-69
-39
-1
11
-3
-47
51
77
65
49
31
49
73
73
-29
-31
11
41
41
19
-29
23
75
39
-5
-31
-28
-29
-9
-113
-139
-103
-63
-55
-57
-95
-74
161
1
-31
-55
-49
-43
137
-85
-133
-93
-57
-45
-39
-89
-89
161
153
-35
-29
23
-37
-129
-89
-57
-33
-21
-45
-93
7
31
3
-21
-25
-21
7
-15
-105
-97
-57
-29
-31
-13
51
15
-9
-25
-27
6
19
-99
-101
-51
-29
-17
-23
-69
-33
55
161
1
-15
39
-63
-109
-59
-27
-59
41
49
7
-15
-13
-15
35
-31
-101
-67
-29
-17
-5
-49
-73
39
58
23
-9
-13
-7
27
-3
-109
-75
-39
-23
-7
19
64
23
7
19
150
-83
-89
-5
-3
-43
-5
71
47
15
-13
-5
-1
53
-65
-89
-33
-23
-3
1
-33
-29
79
59
29
9
19
21
55
-27
-79
-43
-7
145
7
-19
-37
83
81
37
17
57
7
-85
-49
-5
21
15
-11
-51
53
81
33
17
15
17
39
21
-91
-63
-30
5
7
-15
-59
19
67
35
-5
-83
-17
-19
-23
-77
-31
43
15
-9
-23
-25
-19
27
-91
-47
-39
-31
-65
-37
-29
-61
-133
-79
-89
19
-37
-33
11
-39
-125
-95
-49
-37
-43
-45
-95
-13
29
-45
-33
-7
-3
-107
-111
-63
-45
-37
-41
-77
-25
35
13
-7
-41
-31
-21
25
-89
-119
-75
-43
-79
-61
37
7
-15
-30
-30
-29
23
-69
-123
-83
-51
-35
-29
-71
-73
35
31
-15
-31
-29
-27
23
-47
-133
-89
-59
-43
-27
-55
-102
-13
-25
-33
-27
-5
-15
-119
-109
-53
-41
-35
-41
-79
-21
33
9
-15
-25
-31
-21
7
-105
-111
-63
-47
-46
-39
-77
-47
51
29
-9
-23
-30
-21
19
-63
-43
-27
-27
-61
-73
38
23
-3
-31
-31
-7
21
-77
-45
-27
-27
-65
-83
-19
11
-3
-107
-79
-41
-31
-35
-31
-87
7
49
137
-11
-21
-21
7
19
-103
-95
-55
-39
-35
-31
-77
23
-19
-3
29
-89
-117
-61
-30
-33
-37
-75
-47
51
25
2
-33
-15
-19
31
-63
-119
-69
-45
-27
-29
-51
-78
47
37
-1
-9
-26
-31
-107
-77
-47
-17
-15
-39
-67
33
51
19
-7
-3
-11
19
13
-97
-79
-43
-19
-21
-25
-79
3
65
19
-13
19
161
-89
-93
-45
-17
-25
-23
-73
-29
55
27
11
-29
-13
-7
33
-79
-119
-63
-35
-27
-25
-69
-1
-27
-25
-25
33
-47
-27
-25
-43
35
137
-31
-21
-19
29
-31
-123
-87
-47
-27
-25
-49
-93
-5
50
11
-23
-105
-109
-61
-35
-33
-33
-71
-23
39
23
-7
129
31
-67
-89
-44
-1
133
11
-11
3
103
83
59
43
49
55
97
11
-47
-13
17
33
13
-39
-47
177
37
-9
-43
-39
-43
9
-59
-149
-109
-77
-61
-51
-21
-63
-57
-49
-35
173
147
-15
-29
141
-97
-103
-67
-33
-31
51
15
-5
-23
-25
-7
163
-61
-111
-73
-77
131
-27
9
-25
-121
-77
-37
153
53
19
-15
-21
-13
145
7
-101
-89
-43
-33
-64
-5
173
37
-5
-11
-9
139
47
-73
-87
-47
-17
-67
-23
59
159
137
57
-11
-43
-47
43
47
21
-15
-1
-7
35
-67
-27
-11
-13
-27
-57
49
193
33
-3
3
3
53
15
-91
-60
-17
133
-9
-5
-59
25
79
51
17
7
7
33
161
-77
-73
-21
7
2
5
-47
131
87
55
25
13
17
35
193
-17
-7
-3
136
-22
-19
65
65
35
141
5
11
49
-31
-87
-59
-21
-7
-5
-23
-59
47
47
7
-11
-5
-21
17
-7
-117
-87
-49
-39
-75
13
41
5
-25
-37
-1
-119
-111
-67
-43
-37
-47
39
17
-19
-27
17
-101
-119
-37
-47
39
21
-39
-15
145
-79
-129
-75
-55
-39
-43
-65
-81
-13
-37
-35
-31
-131
-95
-45
-41
-35
-55
-9
-23
-39
-21
131
-1
-121
-53
-41
-49
35
11
-15
-29
-27
-31
17
-101
-115
-57
-41
-77
-47
167
-11
149
-79
-115
-69
-49
-31
-37
129
-27
25
-31
-45
-37
-27
17
36
129
-22
141
-83
-33
-45
179
147
-33
-11
-105
-74
-41
-33
-3
-15
-19
-29
19
-81
-45
-49
-77
25
41
141
-25
-17
-11
7
-11
-105
-93
-31
-73
7
45
25
-25
-45
-33
-75
-35
47
35
3
-15
-21
-7
-107
-65
-31
-21
-25
-55
-57
49
31
-27
-45
-111
-75
-41
-19
-21
-45
-59
-11
-13
25
-15
-41
-33
-19
130
57
-99
-89
-55
-29
-17
-29
-77
-29
50
29
-7
-9
21
41
25
-11
-31
-81
-43
-47
163
15
-89
-7
41
5
-23
-21
-21
15
15
-93
-89
-44
-29
-15
-21
-63
-9
73
49
33
15
31
49
75
-27
-55
11
31
37
27
-5
23
99
147
171
-45
-117
-87
-53
-53
-105
17
7
-35
-43
-47
-57
-15
-64
-145
-105
-64
-47
-43
-65
-94
-37
-27
133
-21
-121
-43
-39
-47
-83
-27
-14
-27
-27
-15
137
-99
-101
-49
-29
-5
35
-69
-111
-19
-17
-43
177
-9
-113
-15
-37
-73
154
61
7
-13
141
-7
-91
-87
-31
-19
35
3
-15
-9
19
21
-89
-15
-9
-57
-15
54
-5
-11
-59
-105
-57
-21
-17
-7
-43
-39
59
-23
34
73
131
-55
-13
-1
-3
135
-39
39
23
163
43
-59
-27
13
77
55
143
11
13
17
45
1
-29
55
54
13
-11
-1
-13
161
-39
-105
-71
-31
-9
-11
-31
-65
22
49
11
-17
-13
-13
15
-29
-45
-41
-75
-9
181
11
-13
-35
-29
-17
3
-69
-45
-35
161
129
-31
-41
-31
-33
6
-93
-125
-79
-47
-69
-63
27
145
-17
-45
-29
-41
5
-75
-139
-87
-57
-39
-41
-55
-77
-7
-41
-29
-29
-9
-95
-57
-81
131
167
-39
-31
-109
-43
-35
-31
-77
-25
35
139
-25
-39
-33
-41
-28
-29
-76
-55
33
3
-27
-41
-37
-23
5
-73
-127
-85
-51
-33
-43
-56
-69
25
-29
-29
-17
11
-41
-119
-91
-43
-31
-29
-41
-79
5
31
137
-27
-21
-17
-9
-25
-63
-31
-41
-25
-69
-15
49
19
-19
-29
-21
-23
-1
-107
-109
-60
-27
-63
-41
41
21
-11
-43
-25
-17
131
-89
-113
-67
-43
-27
-23
-49
-46
37
35
-5
-29
-25
-23
25
-43
-111
-65
-41
-27
-31
-41
-77
27
39
-9
-23
-23
-35
5
-17
-115
-91
-51
-39
-19
-27
-75
7
45
9
-11
-29
-21
-9
3
-99
-29
-29
-23
-69
-17
43
15
-1
-29
-17
-9
13
-105
-117
-67
-29
-33
-19
-57
-43
45
21
-10
-19
-21
-10
35
-63
-117
-70
-39
-17
-23
-43
-57
51
37
9
-21
-9
-21
27
-31
-113
-75
-45
-31
-17
-37
-69
35
169
23
-11
-25
-15
-1
-12
-107
-91
-57
-25
-23
-33
-63
133
51
15
-21
-31
-30
-17
11
-99
-95
-55
-21
-15
-33
-73
-21
43
23
-11
-37
-19
-15
15
-77
-121
-77
-29
-25
-29
-57
-53
33
21
-15
-29
-21
-19
19
-59
-127
-83
-43
-37
-35
-47
-77
149
25
7
-19
-23
-21
129
-35
-109
-19
-21
-25
-49
25
75
43
19
15
25
29
57
-43
-31
153
35
41
47
-1
51
113
83
47
19
9
15
15
-64
-51
-45
-63
-93
-77
-41
-61
-47
-47
-5
-93
-65
-45
-57
-69
-81
-44
-37
-47
-5
-51
-141
-95
-65
11
27
-9
-15
-7
-25
-27
-73
-1
51
133
-13
-30
-15
-91
-109
-45
-25
-61
-29
59
37
1
-13
-23
-17
17
-81
-95
-51
-43
53
51
19
-25
-9
-5
18
-45
-113
-67
-27
-11
-13
-39
-59
43
49
7
-7
-9
-5
25
-9
-109
-65
-30
-13
-17
-11
-69
23
59
147
7
-13
-6
147
27
-99
-81
-11
-13
-55
171
133
-10
133
19
45
-77
-93
-41
-13
-3
147
9
39
-41
-81
-37
-15
15
-35
77
81
37
9
138
19
51
3
-91
-39
145
-1
-31
59
3
-5
7
27
23
-83
-67
-33
-3
9
-13
-5
137
31
-58
-29
-25
-23
-29
-9
21
-67
-45
-23
23
-7
-17
9
-57
-119
-83
-57
-29
-23
-13
-25
-127
-101
-49
-83
-3
161
-1
-31
-13
5
-111
-113
-75
-47
-75
-29
33
11
-13
-26
-25
-17
-131
-73
-45
-33
-41
-69
-65
23
17
3
-41
-41
-27
133
-71
-135
-95
-55
-37
-81
29
27
-5
-19
-27
-27
-7
-35
-117
-97
-57
-33
-33
-45
-73
5
43
-3
-25
-39
-25
-15
3
-129
-111
-64
-31
-33
-39
-78
-21
43
7
-19
-43
-23
-25
131
-95
-123
-73
-43
-27
-31
-61
-37
165
15
3
-29
15
-65
-107
-83
-31
-41
-69
169
34
-111
-83
-43
-17
-25
-37
-79
21
41
19
-13
-33
-27
-9
-13
-105
-103
63
23
-19
-25
-21
-95
-27
-29
-31
-1
21
-71
-107
-27
-27
-39
-67
41
169
15
-17
-15
-11
17
-39
-27
-23
-61
145
-13
7
-17
-41
-17
-25
-37
-65
3
61
-13
-11
129
-106
-67
-15
-21
-27
177
161
-21
-75
-107
-67
-39
-27
-53
29
165
131
-27
-49
-121
-77
-45
-77
139
47
139
-19
-13
-15
-3
-15
-111
-87
-57
-27
-30
-43
-67
-5
171
21
-25
-29
-23
-13
5
-99
-105
-61
-31
-27
-37
-61
35
3
-9
41
-59
-87
-43
11
19
25
133
15
103
51
53
51
77
-11
-73
-51
-21
-7
-23
-57
-75
13
21
-19
-53
-45
-41
-29
-65
-147
-139
-85
-67
-99
-17
-39
-47
-41
-41
-25
-129
-111
-69
-47
-41
-51
-79
-21
36
13
-29
-17
130
-110
-115
-73
-39
-33
-43
-73
29
-14
-31
-27
-63
-123
-63
-43
-61
-55
41
163
-1
-21
-21
-15
-125
-91
-47
-15
-27
-45
-71
23
54
133
-9
-21
-11
17
-9
-109
-89
-41
-27
-13
-27
-71
-1
55
17
5
-11
-5
-99
-93
-43
-15
-23
-23
-57
-27
65
31
133
-9
-17
5
29
-41
-31
-9
-13
-41
169
23
-13
131
133
159
-39
-105
-55
-25
-39
-47
59
65
33
131
137
13
33
17
-93
-61
-19
-5
141
-9
-39
47
71
-9
21
43
-75
-19
-41
131
85
53
23
-63
-79
-31
-13
133
-27
77
59
21
-7
1
143
47
-43
-99
-55
-35
-5
-69
43
51
9
-14
17
-21
-33
-45
3
-29
-1
-13
-75
-45
-49
-39
-81
-39
39
9
-23
-11
-5
-105
-125
-27
-31
-7
-7
-25
-45
-131
-99
-1
-11
-57
-49
-25
-43
-61
-55
-43
-45
163
19
-23
-41
-29
-31
7
-73
-131
-81
-47
-37
-39
-67
-63
37
153
-9
-31
-31
-23
17
-103
-49
-39
-41
-47
-79
7
163
3
-23
-29
-21
-117
-37
-31
-37
-73
-13
178
23
-15
-33
-25
-11
9
-111
-31
-31
25
-78
-25
49
37
-9
-25
-27
-15
7
-49
-125
-91
-45
-53
-69
31
-21
-29
-15
17
-17
-121
-97
-59
-35
-29
-39
-73
-9
51
21
-3
-23
-15
-97
-109
-61
-33
-31
-17
-69
-31
57
-15
-21
-83
-105
-57
-15
-49
-45
63
47
145
-9
162
-47
-113
-65
-37
-21
-29
-39
-21
-11
31
-47
-15
-15
-31
131
-11
-5
7
143
-101
-105
-47
-39
-33
-33
-71
-27
179
23
-29
-91
-120
-65
-41
-33
-29
-75
-57
1
-29
-29
-13
147
-89
-35
-43
-73
51
39
129
-21
-23
-29
5
-37
-139
-89
-47
-29
-39
-47
-71
13
-11
-23
-9
21
19
-105
-87
-37
-1
139
9
-31
39
61
41
51
-25
-53
13
133
53
19
-11
-51
-41
-39
-15
-95
-151
-101
-65
-47
-59
-87
-93
21
17
-25
-45
-41
-33
-5
-63
-149
-31
-37
-61
-75
23
-29
-31
-25
7
-11
-59
-39
-29
-35
-76
-35
-15
-5
3
-115
-117
-63
-19
-31
-23
-59
-21
69
35
-1
-23
-17
15
35
-53
-21
-17
-19
-61
-49
11
-15
-9
-13
151
-45
-109
-73
-35
-11
-61
-119
-85
-51
-13
149
193
-11
-17
-17
129
9
39
-47
71
51
-23
-99
-53
-27
-7
-47
193
73
153
145
49
13
-95
-59
-15
7
13
-7
-27
49
21
49
45
-75
135
-53
3
81
49
25
-5
9
23
49
-67
-97
-45
-15
-3
-15
-47
-43
55
39
3
-9
-11
-11
27
-49
-111
-71
-45
-27
-29
-61
-75
37
27
9
-19
-29
-19
11
-49
-123
-89
-61
-31
-37
-57
-85
21
37
7
-31
-30
-27
-9
-15
-131
-113
-63
-45
-41
-53
-87
-17
53
137
-17
-29
-27
7
3
-111
-127
-83
-43
-49
-55
-89
-46
37
21
-14
-33
-23
-19
15
-93
-135
-93
-61
-41
-71
-15
-41
-31
-27
-1
-63
-140
-94
-45
-41
-37
-55
-85
31
35
6
-31
-37
-23
13
-37
-139
-99
-39
-45
-89
-11
55
-29
-1
3
-115
-113
-71
-45
-37
-45
-79
-25
45
23
-15
-17
145
-93
-47
-39
-45
-67
21
-7
-25
-27
-17
21
-67
-127
-79
-45
-27
-31
-59
-63
43
41
-11
-28
-27
-21
-121
-99
-51
-30
-29
-47
43
141
-25
-21
-19
130
-7
-115
-109
-51
-31
-28
27
-17
-31
-19
-3
131
-107
-127
-64
-49
-41
-39
-75
29
-73
-124
-83
-57
41
35
-3
-25
-21
-15
153
-35
-51
-87
19
37
5
-17
11
-105
-47
-39
-35
-7
-7
-43
-30
-37
-77
-35
49
31
-3
-25
-1
-9
27
-63
-115
-73
-45
-17
-55
53
37
133
-11
-13
-7
-123
-83
-33
-23
-27
-43
-67
41
192
13
-7
-13
-13
25
-14
-115
-95
-45
-29
-23
-45
-93
3
55
15
-19
-12
7
-101
-107
-55
-39
-83
153
-9
-35
-15
-93
-129
-81
-43
43
-87
-57
47
23
-27
-29
-23
35
15
129
43
35
37
27
-15
43
53
35
-63
-45
-39
-47
-71
-79
19
-1
-39
-41
5
-83
-155
-111
-71
-47
-63
-87
-95
23
33
-31
5
-33
-99
1
53
9
-17
-29
-23
-5
-103
-67
-37
-31
-47
-83
-19
-1
-29
-19
3
19
-94
-129
-59
-47
-37
-5
-119
-81
-41
-65
-57
51
45
11
-25
-7
-3
41
-21
-121
-81
-43
-17
-73
-9
-113
-95
-45
-27
-23
-19
-72
-1
67
43
-1
-12
-13
13
25
-87
-103
-49
-27
-13
-21
-57
-23
75
61
11
-15
3
9
-115
-63
-25
-7
-9
-45
-45
79
69
23
5
11
21
61
-17
-109
-53
-23
3
7
-29
-43
71
97
35
13
139
23
64
-57
-7
-45
43
81
177
23
49
163
-89
-77
-39
133
-1
-9
49
23
-9
9
27
39
-81
-107
-61
-19
-17
-23
-57
-41
59
35
13
-25
-15
-9
35
-65
-43
-23
-29
-53
-77
31
37
1
-29
-21
-15
145
-93
-35
-57
49
-3
-35
-29
-29
-1
-5
-136
-97
-15
11
-43
-47
-75
-65
49
21
-15
-27
-31
-85
-135
-93
-57
-37
163
21
133
-21
17
-45
-129
-45
-59
-91
23
63
-29
-25
13
-25
-129
-111
-77
-43
-45
-39
-109
-11
41
19
-13
-31
-29
-3
21
-119
-129
-81
-57
-31
-45
-73
-39
41
19
-13
-33
-29
-5
25
-95
-121
-83
-47
-29
-31
177
-27
-15
-9
21
-53
-141
-85
-51
-33
-93
35
51
19
-23
-29
-29
149
-25
-125
-87
-43
-37
-39
-57
-89
137
59
-37
133
-113
-105
-31
-41
-77
25
-13
-15
-23
-97
-123
-87
-39
-75
-47
47
35
-9
-15
-9
-11
33
-67
-129
-79
-43
-25
-27
-51
-71
38
45
139
-15
-15
-31
-118
-97
-45
-33
-33
-51
-95
13
55
