15
31
143
121
71
39
59
61
86
-17
-67
-31
-3
21
1
-15
-23
95
89
63
19
29
27
49
-29
-104
-75
-41
-25
-27
-43
-71
47
63
33
-11
3
11
25
-29
-113
-91
-67
-39
-37
-55
-89
5
27
11
-27
-39
-25
-21
-35
-141
-131
-99
-89
-85
-83
-114
-51
-7
-7
-44
-55
-171
-169
-173
-227
-57
-3
-107
-105
-117
137
173
53
75
127
59
-31
3
51
13
129
195
147
115
117
129
155
123
133
18
67
71
83
245
129
151
169
79
201
193
152
127
145
-25
129
41
57
49
147
115
87
73
61
69
109
37
-61
17
69
108
73
-75
-55
-25
-7
161
27
163
165
-97
-97
-79
-37
-59
-61
-57
-95
135
-3
-29
-43
-69
-143
-119
-91
-65
-71
-95
-117
-17
-47
-157
-81
-95
-93
-143
-37
21
-15
-41
-31
-7
15
-3
-125
-117
-49
-71
-107
-39
31
-25
-17
3
-11
-95
-63
-63
-63
-105
-83
25
3
-41
-15
19
-113
-133
-113
-85
-69
-79
-105
-109
9
137
-17
-37
-29
-31
3
-109
-87
-71
-73
-89
-133
-11
-45
-43
-31
-3
-35
-137
-132
-97
-63
-75
-93
-131
-41
145
-63
-43
-19
-19
-139
-153
-109
-91
-83
-95
-135
-63
-57
-54
-29
-51
-9
-131
-169
-123
-109
-96
-93
-127
-115
-13
-19
-43
-61
-53
-57
3
-147
-117
-85
-100
-133
-155
-27
-9
-39
-59
-51
-51
-1
-71
-181
-145
-95
-95
-95
-97
-157
-51
-13
-49
-51
-47
-57
-37
-53
-30
-37
-131
-109
-97
-107
-155
-87
-13
-27
-43
-67
-149
-171
-85
-113
-153
-105
-13
-15
-55
-79
-45
-25
-14
-137
-181
-127
-91
-101
-92
-125
-103
-11
131
-37
-53
-11
-77
-159
-137
-103
-85
-81
-89
-131
-43
-1
-25
-43
-23
-13
5
-45
-153
-139
-95
-65
-69
-79
-120
-23
17
-14
-43
-27
-21
-11
-11
-137
-129
-87
-67
-105
-39
7
5
3
-39
-25
-9
1
-97
-73
-103
-67
21
5
-29
-55
-35
-11
11
-103
-157
-119
-77
-67
-61
-89
-91
145
21
-3
-29
-15
-11
11
-59
-127
-107
-75
-49
-59
-79
-105
7
45
17
-27
-22
-9
29
-21
-124
-99
-60
-39
-47
-63
-113
2
41
23
-3
-9
-3
31
15
-89
-87
-54
-61
-45
-45
-95
-29
161
41
29
-7
13
161
51
-75
-105
-59
-21
-15
-21
-55
-27
71
53
35
-79
-25
-47
-27
65
63
63
23
161
171
-47
-35
-59
-69
-121
-17
17
-7
-31
-29
-26
11
-45
-141
-143
-75
-49
-79
17
85
195
41
47
67
65
81
-23
-51
139
133
131
149
-31
25
115
99
81
73
63
73
-59
-21
7
-33
-17
121
99
71
51
57
65
115
3
-65
-19
-49
-41
75
79
169
23
43
161
63
129
-95
-69
-7
-27
-63
51
27
23
161
43
27
-83
-77
-45
-17
-3
-25
-65
19
83
47
41
21
29
41
47
-81
-13
-11
-14
-47
-7
79
69
47
25
163
41
57
-49
-83
-47
-23
79
169
61
69
109
21
-61
-31
23
27
25
21
141
121
100
133
95
61
67
55
53
25
123
163
151
125
133
133
35
93
117
103
53
115
195
175
152
167
175
195
69
117
143
149
147
101
153
243
193
223
210
266
163
105
153
187
187
199
177
169
395
263
260
394
319
229
167
170
215
234
233
207
175
295
329
426
278
290
425
333
201
233
255
251
225
197
307
334
328
299
292
289
321
299
208
210
255
248
207
259
351
338
320
284
299
178
193
231
235
218
423
314
398
401
314
205
143
173
183
294
218
115
135
179
163
119
236
262
227
214
214
98
95
125
143
230
65
213
115
75
113
161
145
29
189
75
193
51
157
183
151
115
242
9
113
165
242
225
221
225
-25
-15
-3
35
143
1
127
228
71
64
101
-23
17
15
17
83
49
50
59
-62
-49
-14
-7
-17
-35
-51
61
35
83
133
-85
-69
-21
-11
-23
41
201
27
5
17
23
59
-79
-43
-21
-37
-51
-87
163
3
9
19
27
37
-93
-100
47
165
139
-71
-99
-59
-71
-87
-87
131
-25
-27
-9
31
-57
-140
-67
-81
-103
-113
-7
-33
-9
-35
-137
-107
-79
-57
-61
-87
-115
-3
153
19
145
-121
-113
-55
-9
-13
-17
-3
39
-107
2
-37
-71
-13
41
-93
-77
-75
-101
-135
-7
129
-27
-37
-39
-41
-29
-165
-51
-123
-67
-73
-101
-121
-101
-93
-64
-183
-59
-93
-87
-115
-69
19
149
159
1
23
25
67
-53
-101
-79
-27
-31
-49
-63
-53
51
59
27
-9
1
13
50
-45
-120
-107
-69
-49
-59
-65
-93
11
169
19
-11
13
17
31
-11
-103
-107
-78
-49
-60
-61
-103
1
43
11
-7
-13
-3
23
3
-111
-117
-65
-51
-51
-61
-105
-31
163
13
-1
-9
-9
13
13
-77
-99
-77
-59
-43
-49
-75
-47
149
33
7
-7
15
23
59
-67
-99
-75
-53
-39
-39
-69
-53
51
61
39
57
83
5
-77
-57
-15
17
133
-11
-27
75
101
81
63
67
67
109
85
-17
-13
145
53
57
33
-1
103
155
113
109
97
111
145
5
37
209
71
52
27
102
171
159
149
134
161
141
161
55
163
104
65
69
186
185
181
161
163
177
209
127
57
73
107
140
119
230
198
214
219
394
131
155
182
173
152
125
255
407
257
246
287
244
229
203
330
335
315
321
330
349
223
215
248
408
291
274
237
298
387
378
363
347
363
376
410
280
237
275
307
305
286
379
383
504
342
368
365
400
307
282
301
295
367
382
367
481
340
355
386
315
225
229
269
289
280
266
227
335
371
354
327
323
334
346
321
213
210
249
259
265
386
199
283
323
333
323
283
295
314
323
191
169
209
227
230
203
166
225
297
288
269
247
277
257
143
166
183
181
196
159
149
255
384
235
229
235
223
271
169
141
157
159
111
101
213
241
197
184
193
205
246
184
196
93
127
143
137
113
82
197
233
194
201
195
193
228
203
91
99
118
139
151
141
87
171
255
235
229
217
235
259
274
147
123
175
187
189
198
152
199
302
289
282
263
283
294
329
218
187
211
232
258
247
227
233
357
354
339
324
338
351
403
290
230
259
292
305
298
271
265
383
406
387
357
367
370
403
351
263
259
299
311
319
305
259
355
417
401
374
374
385
426
392
275
283
315
335
321
291
261
347
415
371
369
353
350
370
382
262
239
282
300
287
287
257
297
346
468
339
352
193
242
241
267
245
211
227
321
314
298
267
291
293
451
239
193
209
199
185
148
255
259
231
218
211
214
232
185
71
81
102
105
115
85
37
139
169
155
119
129
99
-37
-29
-5
11
-5
-31
-61
3
65
45
23
129
13
27
149
-95
-117
-87
-67
-61
-67
-9
-31
-29
-21
21
-87
-147
-121
-103
-94
-95
-129
-135
-15
-17
-45
-53
-61
-43
-15
-103
-185
-165
-131
-123
-133
-43
-31
-31
-45
-11
133
169
19
-83
-57
-21
15
27
87
123
113
87
225
116
-5
-17
131
149
34
9
-41
87
67
49
67
71
-75
-37
-15
59
193
-53
-11
-17
-7
-3
-113
-91
-81
-65
-75
-85
-145
-17
-29
-33
-41
-19
-15
-121
-107
-95
-115
-51
-75
-141
-174
-65
-71
-91
-99
-59
-159
-209
-199
-173
-189
-200
-217
-143
-139
-109
-143
-219
-217
-197
-195
-201
-29
-31
-215
-199
-205
-209
-90
-207
-149
-165
-95
-207
-190
-191
-63
-205
-203
-115
-95
-115
-127
-107
-123
-205
-185
-159
-151
-149
-155
-189
-77
-57
-65
-29
-45
-157
-125
-91
-67
-55
-73
-91
-7
181
55
47
47
59
81
91
-37
-23
5
163
41
33
-5
63
143
114
115
216
107
117
143
15
-7
37
17
-13
-12
97
211
57
49
37
49
89
-47
-37
-31
-33
-57
-1
-9
-5
-7
145
-117
-91
-87
-75
-101
-143
-37
-3
-53
-43
-27
-45
-175
-163
-11
-125
-180
-93
-41
-55
-67
-73
-79
-57
-35
-159
-129
-135
-145
-169
-123
-67
-79
-65
-57
-181
-29
-127
-139
-131
-152
-155
-41
-37
-63
-69
-51
-107
-181
-159
-126
-123
-123
-139
-169
77
31
77
89
111
47
163
161
144
131
152
155
191
88
109
169
77
31
77
89
111
47
163
161
144
131
152
155
191
167
88
109
169
77
31
77
89
111
47
163
161
144
131
152
155
191
167
81
103
124
143
157
125
75
181
204
180
161
161
185
209
105
159
143
217
199
185
194
216
97
154
149
141
101
117
201
182
161
152
159
171
210
117
79
237
139
131
129
99
77
169
173
151
137
151
151
191
139
51
79
123
119
111
75
31
146
177
137
137
179
143
31
53
99
107
99
73
25
103
141
119
245
41
65
221
107
241
77
211
195
27
25
233
150
29
55
157
130
123
219
-11
67
189
24
-15
63
227
81
75
163
45
17
-35
29
83
195
63
199
97
-13
-37
147
75
61
189
143
-43
63
195
43
-47
-23
7
151
161
55
47
137
145
163
-29
-54
161
5
131
-27
-11
-21
135
163
-67
-33
-27
-3
37
17
-29
-25
7
15
147
-47
-47
27
13
-15
147
171
-29
-27
-47
-93
-65
25
-3
-67
-28
-41
-51
-73
-99
-7
5
-17
-35
-101
-75
-30
-19
15
-11
-31
-25
-23
13
19
-109
-85
-61
-45
-51
135
-1
-21
-29
-29
-75
-91
-71
-31
-41
-49
-103
-79
5
-5
-37
-9
167
-61
-45
-33
-103
-1
-13
-31
-51
-29
-113
-53
-59
-75
-107
-25
-7
-9
-37
-31
-7
11
3
-95
-95
-59
-39
-47
-67
-121
-37
15
-5
-36
-35
-13
147
20
-103
-105
-55
-37
-39
-55
19
-33
-27
-5
43
-67
-91
-59
-45
-43
-39
-81
-81
13
137
-19
-19
35
-49
-41
-35
-41
-75
-109
3
7
-29
-37
-25
-11
161
-33
-47
-67
-119
-27
-61
-45
-145
-143
-107
-107
-115
-107
-165
-111
-65
-93
-73
-49
-11
-103
-123
-71
-35
-33
-37
-75
-33
49
43
131
5
-41
-71
-33
-13
-7
-63
35
29
4
-7
135
15
47
-27
-85
-67
-39
-17
-25
-49
-87
-9
149
3
-29
-9
-3
21
-5
-91
-79
-45
-29
-41
-55
-103
-29
19
-45
-14
133
139
-93
-103
-57
-55
-105
-49
25
-11
-33
-13
-97
-61
-39
-43
-57
-1
-15
-27
-59
-109
-81
-57
-37
-53
-75
-109
-14
129
-25
-41
-28
-17
31
-29
-125
-93
-51
-65
-127
-31
13
-27
-51
-41
-29
134
-101
-61
-55
-67
-73
-1
-45
-39
-19
-117
-91
-17
-55
-49
-37
147
-91
-73
-25
-69
-51
-39
3
-64
-145
-115
-61
-64
-64
-93
-139
-31
-65
131
-37
-125
-106
-59
-53
-63
-79
-123
-39
3
-33
-47
-14
-3
-107
-107
-59
-49
-51
-45
-99
135
-15
-25
-19
-55
-29
-13
-31
-61
27
7
21
-89
-57
-17
-47
53
-9
-91
-59
-27
-27
-87
133
37
13
-9
-5
3
-21
-23
-7
167
29
23
50
-47
-79
-41
-11
-67
-41
49
35
3
-21
5
-35
-101
-45
-15
-13
-71
21
3
57
-19
-39
-79
137
-13
-5
3
-72
-27
-35
-22
17
-15
-49
171
27
57
-57
-100
-57
-27
-28
-27
-71
-71
31
141
-11
-14
-7
-7
45
-59
-37
-61
25
-7
-29
-9
-1
163
5
-91
-57
-97
-13
-25
-23
-3
23
-87
-43
-91
-39
33
11
-13
-77
-103
-61
27
5
-13
-19
-11
-11
-97
-63
147
-13
-19
-13
-71
-41
-25
-31
-41
-93
-7
-11
33
143
-45
-29
-43
-53
-99
-35
-29
7
155
-87
-99
-63
-41
-79
-64
-97
-61
-33
-41
137
-19
-27
-15
-43
-111
3
-7
147
-3
-47
-39
-43
-29
137
-9
-23
-5
25
-93
-105
-47
-37
-39
-57
-103
-7
-35
-7
31
-79
-107
-67
-44
-37
-43
-85
-27
-31
19
-75
-39
-59
19
-9
-23
-95
-75
-43
-21
-27
-39
-93
-13
29
131
-25
5
35
-93
-91
-47
-47
-105
-27
43
-81
-99
-19
-35
-73
-57
19
15
-77
-135
-69
-109
-153
-53
-51
-75
-114
-5
-11
133
31
-41
130
143
149
129
69
165
21
11
7
-51
-65
-41
-64
-11
141
-95
-51
-35
-21
-26
-59
-78
161
151
-11
-7
31
-75
-39
-27
-29
-7
150
-5
-43
-29
-19
139
147
-107
-87
-47
-23
-27
-49
-97
-33
-43
-25
3
21
-65
-33
-91
-57
17
-3
-27
-9
33
-73
-51
-79
3
-17
-51
-35
-111
-83
-53
-41
-47
-61
-43
-31
-19
-135
-101
-53
-41
-43
-71
-121
-35
7
-23
-47
-51
-31
-15
-3
-119
-109
-69
-55
-59
-69
-121
-69
3
-31
-46
-55
-37
-43
3
-111
-125
-97
-71
-61
-63
-109
-97
-15
-63
-43
-85
-132
-91
-53
-53
-123
-7
-3
-29
-25
-113
-87
-49
-31
-41
-67
-107
11
19
-13
-29
-21
-5
19
17
-99
-87
-41
-25
-13
151
49
-75
-61
-41
-17
-11
-11
-75
-41
31
-15
-9
11
55
-59
-87
-39
-11
-11
-19
-53
-53
139
-13
7
21
55
-17
-93
-60
-7
-7
-25
-43
-73
21
49
9
9
47
20
-75
-75
-27
-11
-15
-29
-77
7
47
34
-7
-13
135
161
31
-77
-83
-39
-13
-15
-31
-81
-23
39
25
-9
-17
9
6
177
-57
-85
-51
-19
-14
-19
-57
-47
29
21
-15
-15
133
-5
51
-37
-104
-59
-21
-14
-33
-73
-69
31
31
-13
-29
-10
7
49
-25
-105
-65
-29
-17
-25
-49
-71
139
37
1
-19
-15
3
33
17
-99
-77
-35
-23
-23
-39
-79
-3
43
9
-11
22
153
-85
-79
-40
-7
-23
-33
-79
-41
43
11
-11
-27
-11
7
47
-67
-110
-49
-29
-29
-35
-69
-62
41
9
-21
-17
-17
1
39
-55
-103
-69
-39
-21
-29
-61
-77
35
23
-3
-23
-13
-1
35
-15
-105
-64
-35
-23
-23
-46
-83
1
-23
-13
5
25
147
-93
-85
-41
-33
-13
-43
-90
-7
45
145
-21
-15
3
13
27
-91
-23
-33
-77
-37
47
15
-11
-25
133
-1
35
-73
-93
-43
-23
-11
-26
-67
-53
37
29
130
-19
-9
-5
55
-43
-93
-62
-25
-17
-29
-47
-77
19
39
-3
-35
-17
9
27
-27
-105
-69
-33
-17
-31
-39
-91
9
37
5
-31
-15
-11
19
133
-87
-77
-41
-25
-85
-13
50
21
-21
-25
-9
13
27
-79
-95
-45
-15
-29
-51
35
1
-15
131
35
-63
-105
-57
-37
-33
-35
-77
-73
17
19
-17
-41
-19
-9
35
-41
-117
-75
-31
-23
-25
-61
-79
21
27
-5
-23
-11
3
41
-8
-107
-61
-27
-17
-15
-35
-85
15
37
145
-13
-11
-11
18
149
-99
-89
-47
-21
-13
-29
-79
-13
41
19
-7
-23
1
11
39
-81
181
31
-9
-19
177
-64
-105
-53
-31
-25
-29
-67
-78
35
21
-11
-9
25
-37
-119
-97
-61
-57
-53
-89
-75
-43
-53
-173
-149
-105
-79
-63
-75
-113
-23
35
21
11
3
19
43
-57
-1
27
19
-3
-37
-7
75
43
25
11
21
33
193
-57
-75
-31
133
-7
-5
-41
-47
49
41
9
-13
-3
9
59
-45
-101
-53
-15
-13
-23
-61
-87
31
161
-9
-31
-11
-11
27
-25
-117
-77
-35
-37
-35
-41
-97
135
27
-1
-33
-29
-7
31
-13
-99
-95
-43
-27
-29
-43
-97
-15
35
5
-27
-35
-15
19
7
-97
-95
-59
-39
-47
-45
-93
-57
35
7
-27
-43
-29
-13
25
-83
-111
-61
-45
-43
-53
-85
-65
29
-25
-13
149
-67
-126
-79
-45
-47
-43
-75
-91
-25
-45
-33
-15
15
-43
-127
-97
-51
-39
-47
-85
-107
-15
11
-31
-54
-49
-27
-1
-23
-135
-109
-69
-47
-51
-73
-111
-43
7
-29
-55
-57
-45
-25
-13
-127
-133
-83
-51
-59
-71
-115
-57
9
-21
-61
-63
-46
-31
-5
-119
-141
-57
-77
3
-11
-29
-51
-29
-27
148
-63
-121
-83
-35
-15
-41
-65
-73
23
37
-13
-25
-5
-3
39
-25
-117
-67
-23
-13
-11
-47
-75
21
43
5
-11
7
17
39
25
-91
-77
-29
7
-13
-41
-71
17
55
19
-15
-1
9
25
37
-79
-75
-39
-3
-13
-21
61
29
131
-7
129
19
49
-63
-85
-47
-15
-15
-17
-47
-47
53
43
3
-11
-3
15
57
-55
-9
-53
-63
161
-13
-3
9
-101
-63
-13
-13
-9
-35
-81
29
40
9
-19
-9
5
29
-79
-41
-17
-9
-27
-81
2
43
149
-14
-19
-7
145
-95
-59
-21
-15
-33
-73
-29
43
17
-11
-17
-1
9
33
-69
-89
-57
-27
-23
-21
-60
-61
35
25
-11
-29
-23
-3
39
-59
-39
-17
-83
31
35
5
-21
-27
1
27
-21
-110
-75
-35
-15
-25
-47
-86
11
45
9
-33
-27
-13
21
-1
-51
-15
-23
-29
-93
-25
165
11
-29
-41
-15
-113
-63
-25
-17
-40
-81
-41
41
-55
-109
-61
-27
-23
25
-10
-25
-9
-11
37
-27
-105
-71
-41
-21
-27
-57
-89
21
45
137
-23
-25
-13
29
-11
-111
-81
-30
-13
-27
-49
-81
-11
47
7
-19
-23
-9
137
11
-89
-89
-47
-29
-83
-37
33
5
35
-71
-33
-37
-43
-77
-64
33
19
-17
-3
-31
-25
-41
-39
159
-31
-121
-83
-47
-29
-31
-63
-96
-3
-37
-27
-15
9
-6
-105
-97
-49
-39
-41
-21
47
15
-19
-37
-25
-9
19
-91
-101
-57
-27
-15
-38
-67
-35
45
29
-15
-37
-15
3
31
-71
-111
-57
-17
-21
-65
43
161
-7
-21
-3
-11
35
-33
-109
-68
-41
-53
-83
143
35
-1
-27
131
-19
-29
-38
-9
141
-125
-103
-49
-149
-47
-71
-73
-13
25
33
210
25
19
-28
-39
59
69
37
15
-87
-69
27
-1
-9
7
17
18
-81
-31
-83
-31
-19
133
27
-85
-111
-25
-57
167
-33
-19
-5
33
-64
-121
-73
-37
-33
-33
-71
-79
143
27
-15
-33
-19
-25
27
-31
-115
-25
-39
-55
-89
-1
-27
9
-97
-53
-29
-39
-35
29
-9
-111
-71
-57
21
5
-33
-51
-39
-25
-55
-47
-89
-35
-62
-45
-67
-133
-121
-73
-47
-63
-15
3
-81
-57
-58
-67
-117
-39
3
-19
-45
-39
-11
-91
-61
-47
-63
-105
-69
-27
-43
-29
-15
-129
-71
-45
-37
-47
-83
-63
39
161
-15
-3
37
-49
-111
45
139
-17
-95
-73
-25
-3
1
-29
-81
23
37
-63
-7
-1
47
49
137
-5
6
11
59
-39
-91
-51
-7
1
-9
-41
-59
50
55
19
3
133
137
47
-15
-91
-53
-26
3
131
-27
-63
37
64
19
11
39
11
-25
-11
-9
-29
-67
3
55
15
-19
-13
-1
145
147
-83
-73
-35
-25
-17
-17
-75
-21
51
161
-11
11
37
-79
-97
-23
-64
-45
133
-65
43
-13
-111
-69
-41
-31
-19
-7
7
15
-89
-79
-39
-29
-13
-15
-81
-19
55
27
-5
-23
-5
19
27
-85
-95
-47
-27
-19
-19
-59
-39
51
29
-3
-31
-13
7
33
-63
-105
-63
-21
-27
-29
-61
-67
31
37
5
-25
-15
-5
37
-31
-111
-78
-31
-15
-29
-53
-85
31
43
139
135
33
-5
-105
-83
-45
-13
-3
-35
-83
19
-17
-17
147
-76
-57
-21
-11
-33
-67
21
-23
-7
33
-59
-33
-13
-29
-61
-53
47
27
-9
-31
-13
-7
35
-63
-111
-69
-43
-39
-17
-63
-37
-23
-13
23
-30
-125
-75
-31
-59
-95
13
22
7
-25
-24
-23
11
-57
-79
-17
51
157
-5
129
35
-84
-93
-17
-17
4
-105
-65
-27
-13
-15
5
-14
-13
-7
-9
-39
-75
34
49
17
-9
-10
-33
-17
-15
-43
42
10
-29
-37
-33
-17
-7
-137
-141
-93
-91
-145
-111
-29
-49
-71
-97
-95
-63
-29
-31
-33
63
39
7
23
37
73
-6
11
151
147
-13
-41
65
75
41
17
17
23
51
11
-25
-15
-5
161
49
23
-5
-13
-7
18
25
-97
-83
-51
35
-11
153
-93
-109
-65
-31
-73
-57
37
17
-17
-21
-17
-9
35
-67
-115
-78
-33
-63
-81
153
19
-1
19
-47
-131
-99
-19
13
-31
-33
-117
-107
-61
-25
37
-43
-31
-17
-97
-61
37
7
-27
-39
-31
-27
149
-91
-135
-87
-63
-55
130
-25
-23
-111
-85
-55
-45
-69
-119
-13
-49
-71
-61
-55
-85
-117
-37
-39
-133
-131
-75
-59
-41
27
-95
-113
-65
-47
-71
-45
171
31
137
-21
-11
61
29
-1
-101
-56
17
59
161
3
137
132
159
27
-85
-79
-17
-7
131
-59
-13
-13
-27
-9
-9
-31
-67
29
-11
-17
3
33
-12
-107
-76
-29
-39
1
153
-89
-75
-15
63
171
-13
133
-25
-45
185
33
130
-15
-7
-9
49
-65
-39
-25
-17
-23
-13
23
-25
-101
-35
-81
5
47
17
141
-29
-21
29
-1
-29
-23
-89
-101
-55
-41
-75
-43
51
25
-9
-27
-25
-17
-109
-73
-37
-31
-17
-47
161
3
-11
-21
-83
-51
-23
-83
17
175
19
-5
-17
-1
147
7
-107
-89
-47
-21
-29
-37
-95
-3
177
19
21
-103
-96
-61
-35
175
157
-19
-7
-101
-69
-63
31
-13
151
-57
-121
23
37
3
-21
-29
-21
149
-91
-57
-89
-9
170
11
-7
-25
-14
-9
11
-109
-111
-73
-39
-31
-29
-29
-23
-9
19
-103
-121
-69
-47
-39
-33
-65
21
1
-25
-13
-11
23
-67
-113
-73
-61
-37
-29
-53
-87
19
35
137
-29
-21
-9
155
-25
-111
-89
-47
-23
-27
-47
-77
21
177
19
-13
-13
-3
23
9
-99
-95
-43
-25
-31
-41
-79
-1
177
23
131
-23
-15
130
31
-83
-97
-55
-25
-15
-29
-85
-29
51
27
13
-15
-17
-11
47
-67
-105
-59
-31
-23
-31
-65
-61
35
31
-1
-33
-29
-27
11
-79
-131
-103
-81
-67
-77
-101
-141
-45
-25
-61
-93
-93
-83
-46
-89
-173
-135
-85
-61
-45
-51
-93
145
55
43
9
19
21
177
27
-69
-51
-9
17
-39
19
93
193
33
27
55
143
-3
-13
-3
35
-57
-107
-67
-31
-13
-25
-51
-63
-15
-14
23
-47
-117
-91
-43
-29
-31
-45
-93
133
41
7
-25
-23
-12
-117
-99
-59
-39
-37
-41
11
-107
-113
-79
-49
-43
-45
-17
-19
157
-73
-117
-78
-47
-71
-77
-13
-27
-126
-99
-61
-45
-39
-59
-95
135
23
-35
133
-47
-55
-103
-9
155
-3
-39
-41
-37
-29
-13
-83
-63
23
-13
-53
-61
-47
-45
-153
-107
-59
-111
-96
-33
-59
-61
-35
3
-101
-141
-109
-69
-69
-59
133
152
-3
-31
-27
-33
-57
-29
-35
51
21
-7
141
-31
-33
-21
-63
165
-11
131
37
-75
-87
-47
-28
-25
51
55
19
-95
-11
163
135
-91
-11
-11
-25
-69
146
17
-91
-91
-33
-29
-11
-21
-67
11
52
27
13
-11
11
23
43
-81
-99
-27
-63
-35
54
161
17
-11
3
-7
165
-59
-109
-63
-37
-25
-23
-55
-69
19
-9
-15
-37
-119
-81
-45
-15
-21
-37
-75
163
55
21
-11
-7
5
31
-11
-115
-91
-49
-25
-29
-35
-75
9
55
15
-5
-19
-13
5
7
-107
-93
-63
-41
-23
-31
-69
-19
41
29
7
-5
161
-73
-39
-39
-41
-57
27
-15
-19
37
-67
-27
-15
-33
-49
-75
25
-17
-126
-77
-61
-12
-11
141
131
23
133
-11
-13
-95
-115
-43
-35
37
-20
-1
-113
-27
-33
-51
39
-1
-31
-117
-41
-89
145
51
-5
-13
133
-99
-49
-41
-5
-15
-21
-5
3
-95
-112
-55
-39
-26
-25
21
21
-73
-109
-73
-69
33
39
-1
-17
-29
-9
29
-45
-113
-89
-45
-41
-33
-47
39
1
-15
-17
-17
-133
-105
-59
-49
-37
129
37
11
-13
-21
145
-103
-99
-33
39
-15
-15
-13
161
-75
-41
-27
-21
-59
31
5
-17
3
-13
37
-45
-113
-75
-41
-81
35
57
19
-13
-7
-15
157
-31
-109
-29
-73
19
55
29
-7
-13
-13
-111
-109
-79
-63
-45
-72
131
-39
-63
-79
-79
-79
-39
-156
-47
-91
-81
-115
-65
163
155
11
-7
29
-19
-61
163
153
5
-11
59
35
71
-5
-89
3
131
-13
38
19
19
11
41
-29
-5
-11
-23
-49
37
3
-87
-85
-25
-11
59
35
13
-3
39
-75
-109
-57
-35
-27
-25
43
54
19
-1
-5
131
41
-31
-100
-77
-27
-31
-23
-43
-69
43
52
-1
-11
-111
-89
1
-61
-43
-81
-35
47
33
-117
-49
-69
-59
-23
-11
-27
19
-101
-57
-47
-47
17
151
-13
-23
-63
-103
-22
11
-15
-31
-37
-35
-17
-11
-123
-109
-78
-61
-55
-47
-105
-41
23
17
-29
-9
139
-99
-115
-57
-45
-41
-47
-71
-47
49
27
5
-29
133
13
179
-59
-105
-53
-29
-45
-39
53
53
29
13
23
-13
-103
-76
-39
-17
-7
-19
73
161
145
15
147
39
145
-95
-81
-31
-13
-67
21
205
37
-81
-13
-53
-13
11
-103
-61
-35
-27
-21
57
43
21
5
134
-1
47
-46
-113
-77
-43
-21
-15
-39
-61
5
35
-11
-121
-91
-43
-27
-27
-37
-79
25
55
19
-7
-11
1
145
-1
-111
-31
-35
-61
-9
23
-91
-111
-63
-39
-45
45
-13
-63
-27
-55
143
-13
1
-27
-45
-35
-87
15
40
-21
-3
147
-1
-121
-101
-45
-42
-87
-17
131
-3
-37
-43
-49
-67
-37
51
161
-17
-1
155
-77
-49
-41
-69
161
169
3
-11
-10
-15
23
-37
-119
-91
-59
-37
-31
-55
-79
25
-11
-13
-5
21
-17
-109
-97
-51
-31
-37
-45
-13
9
-43
-39
-45
45
23
-10
-15
19
-85
-115
-81
-47
-46
-63
41
37
-7
-59
-51
-55
-80
137
-27
-17
-37
-127
-117
-95
1
29
-33
-23
3
-9
-65
-43
-49
-55
-87
-31
51
20
-15
-21
-19
-5
17
-87
-111
-79
-45
-49
-49
-67
-47
37
33
3
-11
-7
-7
31
-73
-44
-57
-61
47
47
19
-13
-5
-1
27
-83
-33
29
53
-9
3
19
-5
-113
-108
-49
-35
5
49
33
-5
7
-1
139
21
-45
-45
-89
-45
161
-41
-45
-23
-113
-4
-129
-35
-33
-62
-51
-1
-91
-39
-27
-39
193
83
63
31
43
51
193
25
-75
-71
-17
-5
-7
29
73
45
15
17
21
145
23
-83
-85
-31
-29
-11
-19
-71
-9
57
42
9
3
-5
7
147
-97
-113
-65
-41
-41
-39
-81
-35
49
41
7
-17
-11
-7
21
-75
-117
-77
-58
-43
-47
-7
-46
-37
-57
-83
150
-11
3
-12
37
3
-15
-17
-17
-9
135
-117
-57
-49
-45
35
139
-17
-29
-23
-21
-139
-89
-69
-55
-64
-79
-79
149
-33
11
-85
-145
-107
-75
-59
-61
-75
-103
1
21
-19
-37
-37
-25
-5
-63
-155
-117
-83
-64
-69
-79
-111
-23
15
-13
-39
-45
-41
-35
-31
-153
-142
-103
-69
-71
-75
-110
-39
19
-11
-25
-51
-31
-13
-11
-125
-139
-107
-67
-61
-64
-98
-43
31
9
-19
-29
-11
-13
15
-77
-39
-57
-59
47
43
23
-5
-3
17
33
-45
-109
-75
-37
-23
-23
-39
-63
41
67
47
3
7
19
35
-15
-107
-71
-33
-21
-17
-29
-71
25
63
47
17
13
11
19
23
-51
-25
-11
-27
-55
135
63
59
27
-7
15
153
47
-67
-107
-45
-19
-21
-35
-53
-19
193
15
21
145
49
-57
-97
-23
-25
-47
-45
15
11
45
-17
-107
-27
-27
-37
-73
33
63
139
149
35
-3
-102
-87
-27
139
57
33
13
11
15
-97
-87
-31
193
-13
135
7
49
-69
-111
-67
-45
-31
-33
57
3
-11
-47
-25
-37
-57
-1
15
-29
51
155
-11
-21
-1
15
15
-109
-94
-45
-35
-15
183
161
139
133
-45
-37
-39
-71
-49
43
25
1
-5
-3
-5
165
-57
-115
-85
-49
-39
-39
-55
-75
31
47
145
136
23
-31
-111
-97
-49
-25
-27
-43
-76
21
-9
-5
133
-121
-103
13
-7
129
-1
17
-89
-109
-45
35
-71
-47
-31
-31
11
-15
-13
-3
-45
-35
-41
-55
-81
21
-15
19
-105
-64
-58
-45
-57
-77
9
53
31
-1
-7
9
-95
-105
-31
-36
-69
-27
55
35
-7
7
39
-81
-29
-33
-67
-59
51
39
145
-9
43
-75
25
-5
161
-47
-33
-35
-45
-79
25
179
17
-3
-7
-1
133
-7
-83
-77
-81
-88
-137
-75
-15
-37
-75
-71
-43
-157
-178
-137
-103
-79
-77
-105
-53
7
11
-27
71
211
61
-1
-105
-69
-17
-11
-19
-41
-65
3
3
-105
-93
-57
-35
-28
-37
-74
-1
53
29
-7
-77
-45
47
163
3
-25
-11
-1
165
-77
-127
-79
-49
-41
-43
-73
-69
-13
-13
-125
-95
-53
-41
-57
-59
-89
7
165
-13
-23
7
-29
-125
-103
-73
-61
-43
-75
165
17
-11
-19
-19
129
5
-113
-123
-81
-59
-57
-65
-111
-37
33
-19
4
-109
-139
-91
-73
-65
-57
-83
-77
19
143
-27
-27
147
-95
-137
-116
-75
-67
-61
-87
15
-21
-45
-41
-29
9
-65
-157
-17
143
-17
-45
-13
-39
-25
-27
-15
-9
-125
-77
-53
-47
-57
-77
-43
49
23
41
-65
-117
-77
-35
-33
-43
-51
-59
47
51
25
-23
-102
-23
-19
51
79
181
147
21
23
169
5
-93
-79
-39
-25
-21
-31
-71
19
69
49
25
163
35
-95
-95
-49
-59
-7
81
53
22
5
133
25
40
-75
-105
-73
-39
-21
-15
-45
-41
31
19
17
17
51
-41
-115
-79
-33
-13
-31
41
59
29
11
15
25
45
-13
-105
-95
-49
-23
-45
-39
-79
19
63
47
15
13
15
27
21
-47
-39
-88
-8
57
43
5
151
29
-91
-104
-45
-31
-85
51
135
19
51
-63
-69
-59
3
-5
139
15
-119
-31
-31
-51
139
3
137
23
-1
-125
-41
-29
-44
-91
-5
41
161
133
-14
19
-103
-117
-63
-47
-46
-47
-73
-31
59
-3
47
-81
-123
-77
-53
-37
-57
-83
35
15
5
49
-51
-123
-89
-47
-27
-29
-69
-89
25
41
11
3
9
7
29
-23
-119
-101
-61
-45
-38
-55
-95
11
55
23
5
-19
3
13
5
-115
-109
-55
-45
-41
-45
-97
-15
47
29
3
-13
-13
129
15
-77
-49
-47
-59
35
43
11
-13
-7
5
33
-79
-139
-90
-57
-41
-49
-77
-79
31
41
-7
133
39
-47
-51
-43
-57
-57
-85
19
41
7
-9
11
-3
35
1
-119
-101
-71
-45
-36
-49
-81
3
11
-5
131
25
19
-109
-39
-37
-43
-87
-27
191
35
9
-11
-5
17
40
-91
-123
-59
-35
-49
-41
-77
-51
51
37
149
-7
11
137
53
-57
-121
-75
-54
-43
-43
-73
-85
23
31
131
-25
-41
-37
5
-75
-173
-141
-121
-97
-110
-137
-165
-43
-23
-43
-73
-53
-41
-9
-25
-136
-101
-49
-19
-53
171
103
71
41
45
54
-49
-69
-29
-1
133
-1
-47
5
87
67
45
19
63
-60
-108
-63
-27
-13
55
13
7
17
149
47
-47
-116
-83
-47
-43
-31
25
43
151
-7
-7
135
27
-21
-115
-93
-41
-59
-95
13
49
23
-7
-15
15
23
11
-113
-111
-69
-57
-53
-57
-95
-15
41
35
-7
-11
-11
3
-119
-79
-51
-47
-51
-73
-55
47
35
131
-9
-9
-13
-133
-92
-59
-43
-51
21
31
131
-21
-9
-5
155
-46
-144
-99
-63
-43
-63
-75
-118
133
27
9
-17
-11
-7
11
-35
-131
-52
-63
-73
-116
-29
23
134
-27
-17
-95
-79
-67
-23
-37
-29
19
21
-21
-71
-59
-63
-72
-89
21
33
-15
-117
-41
-43
-53
-81
41
35
39
-87
-99
-47
-27
-65
-93
-51
-23
-15
-33
-51
59
68
-31
-31
-25
33
57
137
-105
-81
-37
-27
-23
-37
-77
163
153
-41
-13
-15
-35
-69
47
27
35
177
-89
-92
-49
-31
-31
-29
-62
-41
27
17
9
17
51
-55
-113
-73
25
5
135
-9
-111
-83
-41
-29
-83
5
19
39
-61
-85
-9
59
47
9
31
-101
-117
-48
-49
57
-78
-43
-65
-73
49
51
21
9
11
13
47
-25
-115
-85
-56
-39
-25
-55
-87
141
23
-117
-99
-59
-35
-39
-51
-89
129
193
163
9
35
-103
-99
-53
-41
-43
-43
-75
-35
55
163
19
-1
35
-89
-111
-75
-49
-43
-69
177
135
171
-89
-55
-43
-37
163
55
23
-124
-93
-3
-13
-3
17
7
-107
-103
-71
-41
-47
-55
-91
-25
47
19
5
-9
29
-103
-47
-43
-47
-79
-53
53
-7
47
-79
-51
-33
-73
51
59
132
-15
-115
-87
33
11
5
-35
-79
-7
61
47
21
19
39
-91
-101
-39
-49
49
37
-153
-125
-29
-63
-80
-77
-155
-99
-79
-95
27
195
49
31
175
-69
-65
-15
-1
-1
-23
91
55
169
161
49
59
47
-77
-89
-41
-71
13
17
-61
-105
-59
-53
-35
-59
51
51
149
-3
3
7
53
-41
-118
-82
-61
-41
-41
-71
-93
151
47
133
11
-119
-103
-57
-39
-37
-69
-97
129
-9
-9
-3
147
5
-123
-125
-86
-59
-53
-63
-103
-33
39
17
-1
-12
-7
3
17
-95
-131
-95
-60
-63
-53
-95
-75
31
37
9
-21
-12
-3
29
-77
-129
-83
-63
-47
-57
-91
-93
147
-13
-13
21
-59
-79
-69
-109
-11
146
-5
-29
-27
-19
-1
-21
-143
-83
-123
-39
21
-3
-29
-11
-7
-127
-147
-111
-71
-83
-83
-133
-79
11
1
-19
-45
-37
-21
-1
-127
-150
-117
-79
-77
-77
-107
-93
-9
-9
29
-61
-130
-93
-73
-51
-39
-63
-84
19
37
149
-1
131
13
43
-1
-109
-85
-51
-25
-31
-45
-79
27
59
41
11
137
23
-105
-91
-57
-31
-25
-40
15
23
-69
19
57
-51
-99
-75
-29
-19
-45
43
59
163
11
15
147
64
-19
-119
-73
-37
-25
-79
35
137
145
163
175
29
-41
-83
5
53
41
15
13
19
37
43
-29
-37
-79
-29
49
45
17
-1
21
21
61
-73
-109
-39
-51
5
139
25
55
-61
-79
33
-5
19
1
-107
-43
-35
-53
-83
145
135
15
23
-97
-43
-29
-43
-89
-29
25
-1
-1
145
39
-77
-63
-5
135
165
-43
-125
-93
-55
43
43
153
133
51
-3
13
51
157
17
37
15
-61
-45
-87
3
-5
39
-87
-53
-31
51
167
-55
-61
129
-107
-75
-58
-109
-7
-13
-11
-1
31
-75
-47
68
43
15
5
3
-91
-115
-73
-45
-45
-41
65
59
17
-3
11
147
39
-63
-119
-90
-63
-45
-35
-73
-71
43
59
27
-7
-1
135
45
-25
-116
-103
-77
-37
-35
-43
-85
19
61
37
-3
15
21
51
-5
-118
-107
-65
-49
-46
-63
-97
-5
43
-25
-29
-32
-173
-143
-121
-109
-127
-156
-101
-27
-29
-61
-77
-63
-35
-11
-117
-147
-105
-43
-31
-39
-57
163
49
-19
-24
-3
-13
194
81
53
33
21
161
61
5
-97
-75
-47
-33
-21
-43
-85
35
61
41
7
9
147
43
11
-99
-107
-67
-43
-33
-45
-89
13
59
31
11
-5
13
17
25
-95
-115
-73
-58
-91
-45
177
37
17
-7
-5
-93
-131
-97
-49
-53
-59
-79
-63
13
-15
167
-65
-53
129
-5
-29
-125
-123
-88
-67
-107
137
51
-21
-14
11
-13
-116
-132
-111
-73
-109
-35
33
157
-23
-9
15
-115
-145
-113
-73
-69
-69
-111
21
-101
-31
-23
-1
-57
-21
-135
-11
-141
-133
-1
-99
-64
-49
-53
45
39
151
137
45
-55
-108
-81
45
197
177
159
153
-71
179
157
15
159
-81
-103
-63
-75
157
147
19
-63
-99
-55
-35
-31
-25
55
-45
-45
-33
-35
-57
-53
45
195
29
138
159
145
-99
-85
-55
-27
-29
-45
-73
23
197
171
17
138
17
-64
-37
-45
-47
-85
5
55
53
25
31
37
-73
-125
-71
-45
-31
-33
-79
-19
7
25
-115
-91
-58
-75
51
-27
-39
-63
-87
7
47
31
-11
-103
-109
-65
-47
-39
131
55
43
3
-7
131
21
23
-89
-125
-79
-61
-41
-53
-85
-21
23
9
5
145
-87
-61
-37
29
-5
49
-97
-65
163
-1
161
-21
-65
-49
-51
-61
-99
11
161
161
7
133
149
-57
-25
163
163
9
-9
-5
-7
159
-95
-69
-81
45
17
-63
-79
-45
-37
155
5
-77
-43
-91
3
47
151
-55
-43
133
173
-83
-57
-85
3
133
-43
-121
-48
-1
-45
-137
-141
-63
-33
-35
-61
-79
-57
191
197
181
-35
-57
-37
211
59
33
-29
-55
-71
171
-11
-109
-103
-35
-1
17
25
-47
-46
-87
-37
33
35
27
135
35
-91
-69
-61
-69
159
35
21
5
-59
-129
-99
-73
-57
-59
-77
-99
147
-5
-93
-57
-11
-131
-125
-99
-13
-15
-1
-119
-17
-17
-87
-89
-77
-73
-95
-109
-5
-29
-15
-137
-107
-87
-123
-29
131
131
-13
7
-9
-125
-129
-107
-74
-111
151
-1
-17
-11
135
27
-85
-117
11
59
-51
-108
-71
-45
-41
-29
-59
-59
43
58
56
23
23
19
67
-17
-89
-43
65
53
161
65
163
-79
-67
-47
-47
-31
-37
-27
-30
-63
151
157
171
199
-43
-35
-21
-27
-60
-55
49
155
21
145
55
-25
-101
55
39
25
21
35
47
-67
-47
-35
-39
-81
1
175
163
31
-87
-55
-45
-51
41
47
29
145
145
9
58
-57
-57
-47
-57
35
45
33
149
19
17
63
-31
-111
-53
-49
45
51
31
147
17
17
41
-14
-105
-89
-69
-57
-45
165
165
147
5
37
21
39
-75
-109
-43
-47
-79
-45
53
-57
-49
-59
-78
-91
21
39
25
-3
-5
131
33
-39
-119
-90
-83
-61
-47
-63
-101
6
35
29
141
9
5
33
-3
-105
-91
-79
-69
-61
-53
-105
-13
15
31
-91
-113
-83
-61
-51
-51
-85
-35
179
161
-1
23
49
-75
-107
-75
-45
-77
-63
31
19
147
1
53
-31
-103
-77
-65
-47
-41
37
13
45
-81
-61
-55
-45
-59
-89
11
149
11
-97
-97
-63
-29
-27
-23
-11
-125
-159
-141
-129
-125
-121
-41
-53
-45
-59
-51
-33
147
-85
-121
-87
-59
-31
-27
-61
-41
67
83
56
86
19
-75
-37
-33
-15
-51
43
207
177
169
55
-79
-55
-83
-11
43
35
149
9
9
31
163
-95
-97
-69
-53
-55
-51
-95
-41
49
27
15
-5
3
21
55
-71
-117
-74
-73
-71
-60
-97
-67
31
9
25
9
-5
7
43
-89
-93
23
25
22
9
17
-99
-77
-73
5
-5
-109
-85
-77
-109
-45
130
11
145
-7
-89
-87
-81
-65
-99
-99
131
-87
-126
-21
-29
-21
-27
7
-23
-111
-93
-86
145
-27
-13
131
-67
27
23
13
17
-79
-61
27
63
-15
-107
-74
-53
-41
-47
-47
187
-51
-35
7
67
49
33
43
-83
-55
-57
-46
-37
-63
-33
61
159
163
-41
-43
-61
167
53
31
39
51
-71
-63
-47
-89
35
59
33
147
147
37
177
21
-93
-83
-47
-47
-89
3
55
153
43
-93
-91
-53
-55
-55
-35
157
177
-59
-47
-61
149
145
167
-53
36
131
-61
-59
-57
-61
47
149
-83
-61
-59
-59
43
19
21
139
29
149
49
-63
-103
-65
-81
-63
37
33
11
139
27
13
53
-59
-45
-63
-89
25
37
23
17
33
-5
-111
-91
-57
-55
-93
-5
53
21
11
5
3
165
19
-105
-109
-61
-59
-53
-63
-89
153
145
11
15
17
35
-85
-105
-69
-71
-75
33
21
1
131
5
13
38
-60
-115
-77
-80
-65
-61
-73
-91
23
27
130
3
39
-35
-115
-85
-63
-53
-49
-89
-100
19
41
19
15
21
19
49
5
-95
-79
-55
-63
-55
-59
-95
-9
51
29
17
19
23
41
27
-90
-94
-53
-53
-47
-53
-93
-17
51
27
23
13
15
24
41
-75
-97
-63
-59
-53
-59
-89
-59
-105
-69
-55
-47
-45
19
21
13
-15
-13
-5
15
-71
-152
-143
-117
-115
-125
-141
-167
-63
-37
-63
-15
-113
-75
-63
-57
-51
-87
7
67
51
38
47
51
69
65
-49
-63
-17
-11
-31
-29
-61
-11
83
51
35
33
55
51
64
-53
-41
-49
-49
49
35
25
157
23
35
56
-47
-109
-64
-57
-59
-78
21
35
21
23
49
-9
-109
-83
-51
-63
-63
-73
-95
3
27
139
131
17
145
41
13
-65
-60
-65
-64
3
143
19
-97
-109
-71
-105
13
-11
133
133
147
35
-78
-117
-83
-77
-71
-69
-97
21
-11
-7
11
13
41
-53
-125
-81
-71
-79
-69
-91
-111
-5
11
-5
-9
-1
-3
155
-105
-73
-91
-137
-13
-15
-13
-10
-1
3
-127
-125
-95
11
-27
-17
-21
133
-116
-143
-99
-100
-121
-93
-3
-5
-21
-29
-7
-13
19
-75
-123
-111
11
23
133
-1
-7
21
43
-30
-109
-87
-59
-63
21
56
25
11
31
35
47
13
-94
-71
-42
-47
-43
-55
-88
129
51
35
19
21
35
51
55
-69
-89
-46
-47
-35
-41
-87
-19
59
41
21
23
165
47
67
-49
-83
-39
-29
-39
-43
-65
-41
49
37
31
19
37
41
61
-27
-85
-53
-39
-43
-53
-61
-77
35
179
25
27
35
37
65
-5
-95
-65
-31
-33
-45
-63
-91
13
47
27
17
35
39
53
149
-87
-91
-51
-55
-57
-53
-97
-11
55
35
7
17
37
35
49
-69
-77
-51
-43
-47
-55
-87
-45
51
31
3
17
25
23
49
-67
-95
-55
-45
-59
-55
-79
-73
43
27
5
9
21
33
63
-47
-111
-69
-45
-59
-59
-73
-79
31
35
13
19
25
29
61
-19
-101
-79
-49
-53
-59
-61
-93
13
41
17
139
21
37
43
13
-89
-95
-47
-45
-62
-69
-95
-5
1
7
19
27
37
-87
-93
-59
-55
-65
-67
-95
-39
47
9
27
21
45
-55
-63
-81
-73
37
35
131
7
151
23
63
-49
-99
-73
-51
-57
-93
17
41
17
-1
17
-25
-111
-77
-63
-75
-97
4
39
23
-10
39
27
-87
-69
-65
151
149
3
13
15
9
39
-77
-103
-63
-63
-103
-61
43
25
129
-9
-113
-81
-61
-64
-63
-92
-85
143
23
-5
-5
15
-113
-87
-59
-69
-71
-79
-109
-7
31
133
-15
11
23
-105
-89
-73
-107
-7
33
149
-13
141
21
165
39
-57
-49
-67
-33
53
155
7
17
25
31
169
-61
-97
-69
-45
-53
-61
-77
-69
35
35
145
7
37
31
67
-23
-89
-61
-39
-55
-55
-67
-81
37
49
25
3
27
35
56
-15
-99
-79
-47
-61
-59
-73
-107
-7
15
-5
-31
-29
-17
-5
-41
-157
-155
-115
-125
-127
-153
-175
-91
-33
-47
-64
-43
-15
5
21
-103
-93
-45
-24
-41
-41
-57
-11
85
67
53
73
95
-25
-61
-23
-35
59
53
37
163
69
-33
-93
-61
-47
-75
-91
165
-73
-44
-49
-45
-3
45
9
-5
9
147
-92
-89
-57
-55
-99
-27
25
17
-1
1
7
-83
-107
-63
-47
-71
-77
-110
-77
-1
-9
13
19
51
-79
-121
-79
-55
-64
-83
-105
-97
15
17
-11
5
37
-43
-123
-95
-69
-61
-73
-91
-33
-9
13
-105
-97
-77
-67
-131
-43
23
-3
-25
-23
11
21
3
-108
-129
-78
-69
-87
-93
-129
-79
7
131
-27
-39
-11
-7
17
-106
-141
-81
-85
-133
-13
-29
-49
-22
-17
145
-83
-141
-113
-79
-80
-89
-115
-137
-25
-37
-9
129
39
-33
-141
-107
-73
-93
-123
-11
153
-9
21
47
11
-97
-81
-51
-41
-61
-69
-109
-33
51
31
3
17
31
49
43
-49
-27
-47
-58
-91
-47
53
168
15
13
33
45
67
-49
-83
-49
-37
-47
-49
-83
-63
43
47
21
17
31
45
79
-11
-85
-57
-25
-29
-47
-63
55
34
19
35
45
79
145
-91
-64
-31
-25
-51
-53
-83
21
175
29
5
55
37
-79
-27
-43
-61
-91
-21
51
35
18
15
155
51
57
-65
-89
-49
-31
-43
-57
-103
29
11
169
-103
-47
-42
-39
-57
35
49
51
-21
-105
-69
-47
-37
143
149
29
-85
-43
-29
-41
-9
137
13
47
-71
-87
-61
-43
-51
-49
-99
147
3
-9
13
41
59
-67
-103
-63
-33
-37
-63
-95
-77
7
-27
-103
-63
-33
-39
-61
-71
-91
145
33
11
7
145
153
55
-1
-103
-75
-51
-37
-49
-77
-95
3
26
155
-85
-79
-51
-45
29
27
41
29
161
135
-7
33
33
69
-31
-99
-73
-47
-43
-67
-89
-93
31
163
19
33
63
-3
-101
-71
-47
-31
-63
-83
-105
135
31
21
-9
3
21
-85
-82
-51
-39
-55
-73
-107
21
-1
31
-35
-49
-63
-107
-63
33
33
131
-7
15
35
51
-59
-111
-74
-89
19
19
3
-7
139
21
65
-21
-55
-45
-68
-87
-97
13
33
5
-9
5
21
51
133
-95
-79
-51
-31
-55
-73
-103
-7
39
7
25
49
-46
-25
-45
-65
-97
-33
43
23
9
-5
177
-69
-95
-41
-63
-95
-69
27
27
9
-5
21
35
71
-41
-95
-63
-37
-27
-61
-79
-87
31
165
11
3
19
31
61
-11
-43
-25
-51
-75
-103
13
27
3
-21
-11
-11
27
-93
-109
-153
-33
-61
-77
-78
-45
-19
-13
-121
-125
-77
-35
-55
-59
-90
-11
69
55
39
165
193
81
-45
-21
-5
3
-23
-67
-47
177
50
33
19
37
57
81
-15
-77
-47
-87
15
39
27
-5
17
43
71
-1
-101
-69
-37
-21
35
17
-7
43
27
-95
-93
-59
-43
-53
-71
-115
-37
23
21
-9
-3
13
-79
-103
-65
-47
-39
-81
-111
-67
37
23
-9
-17
9
23
55
-63
-109
-71
-47
-59
-69
-107
-95
17
7
-13
-15
-3
15
57
-39
-101
-91
-57
-49
-61
-95
-119
-5
17
-5
-25
-5
5
51
-15
-117
-89
-61
-57
-67
-95
-123
-29
15
-7
-19
25
13
-111
-115
-71
-65
-77
-89
-142
-59
7
-17
-23
11
27
-85
-75
-77
-99
-143
-103
7
-5
-31
-39
-27
-5
29
-85
-65
-93
131
131
-31
-43
-31
-11
33
-93
-79
-21
17
3
131
-87
-57
-41
-47
-77
-111
-31
159
25
133
49
-31
-31
-49
43
31
15
-47
-87
-47
-23
-33
-46
-81
-79
43
34
9
3
23
47
74
-23
-29
-15
-46
-67
-89
34
53
19
47
67
20
-99
5
173
31
141
49
-77
-81
-35
-17
-29
-63
-95
-17
53
31
15
7
19
47
-83
-41
-29
-27
-55
-87
-47
39
165
19
3
25
49
87
-47
-91
-59
-33
-21
-43
-87
15
-1
15
35
203
-13
-87
-59
-39
-17
-44
-74
-97
17
45
25
135
13
-67
-38
-25
-37
-59
-105
-15
53
21
133
5
159
-73
-85
-45
-27
-109
-39
37
25
45
-97
-63
-23
-33
-55
31
33
7
-19
-97
-61
-107
153
41
141
7
3
29
-91
-71
-47
-37
-115
3
43
29
63
41
-95
-93
-47
-47
-43
-73
-121
-39
165
23
-13
-9
7
27
65
-69
-99
-57
-35
-49
-61
-100
-61
23
15
-5
-7
1
21
70
-47
-105
-75
-43
-42
-57
-97
-75
19
29
7
-11
-7
23
61
-29
-103
-79
-43
-37
-59
-87
-95
-1
29
7
-19
3
19
37
3
-91
-91
-43
-51
-45
-84
-125
-25
25
15
-15
-9
9
39
21
-93
-95
-60
-43
-41
-79
-127
147
-5
-13
129
27
41
-92
-107
-65
-45
-59
-73
-107
-73
23
19
-17
-15
-9
-49
-103
-85
-99
17
-5
129
23
-105
-79
-45
-29
-43
-81
155
-3
-23
-7
33
59
153
-86
-31
-63
-111
-21
43
17
-11
-1
11
33
177
-64
-83
-33
-63
-109
-55
33
161
-59
-37
-35
-51
-93
-17
-5
17
-81
-85
-149
-164
-63
-47
-76
-89
-76
-55
-13
-63
-105
-95
171
31
23
163
51
209
81
-31
-39
131
-9
-63
-13
73
61
43
71
89
-35
-63
-25
-39
151
3
9
171
-79
-59
-29
-23
-45
-83
-97
129
131
13
23
195
-7
-97
-74
-49
-111
-9
-13
-47
-67
-121
-57
21
5
-17
-23
11
27
47
-81
-49
7
-17
-23
-9
-69
-61
3
5
-11
-19
-109
-81
-58
-135
-29
-13
-109
-103
-65
-61
-59
-93
-149
-57
-3
-35
-17
11
21
-115
-121
-67
-87
-143
-89
-5
-15
-49
-47
-31
-103
-73
-79
-93
-145
-131
-19
-23
-37
-47
-43
-13
35
-69
-133
-93
-63
-67
-71
-115
-125
-11
5
-25
-23
-27
-7
55
-15
-109
-81
-47
-37
-47
-79
-119
-7
27
-5
-15
9
13
55
173
-85
-67
-45
-29
-29
-43
-109
-27
45
21
13
3
19
55
194
-63
-87
-37
-25
-23
-43
-93
31
17
5
25
57
89
-45
-64
-33
-15
-21
-29
-79
-64
35
35
35
17
21
45
101
-27
-81
-51
-25
-13
-21
-73
-79
152
43
13
-3
13
45
85
7
-77
-53
-15
-25
-25
-61
-99
7
43
25
15
25
29
77
52
-67
-67
-21
-17
-17
-43
-115
-19
39
23
-1
11
23
59
63
-63
-69
-35
-37
-41
-45
-105
-47
43
21
11
5
19
37
71
-47
-83
-43
-23
-23
-35
-89
-69
35
29
13
1
11
33
74
-29
-93
-59
-33
-21
-33
-81
-97
19
15
7
-7
7
19
67
13
-85
-61
-37
-19
-35
-75
-115
3
168
19
131
7
15
59
23
-83
-63
-33
-65
-111
-15
161
19
-5
-9
13
177
51
-75
-77
-43
-33
-43
-53
7
-9
131
147
61
-51
-29
-29
-33
-89
-85
161
23
133
-15
81
-13
-95
-57
-27
-21
-37
15
25
9
-7
7
17
55
-67
-47
-33
-39
-73
-127
-13
27
7
-3
-5
129
41
33
-81
-83
-53
-31
-109
-46
145
-25
1
31
63
-73
-101
-67
-47
-45
-61
-115
-74
25
21
-5
-27
-3
13
67
-43
-103
-39
-45
-89
-93
9
17
9
23
71
-3
-87
-71
-39
-25
-41
-69
-95
-1
37
15
-11
3
161
-78
-73
-29
-29
-41
-57
-126
-23
35
9
-5
3
13
39
167
-63
-79
-51
-30
-29
-51
-111
-51
-1
-7
9
39
59
-59
-79
-47
-27
-29
-43
27
139
-11
-27
-5
5
63
-61
-123
-93
-71
-85
-91
-143
-165
-64
-51
-71
-81
-77
-59
-5
-69
-155
-119
-87
-55
-61
-81
-111
7
49
25
137
162
49
95
67
-51
-33
-1
15
-5
-17
-79
51
25
27
33
65
67
-55
-77
-39
-27
-17
-35
-90
-25
39
21
11
29
67
-57
-93
-57
-15
-31
-37
-95
19
-7
-9
1
143
71
-39
-92
-55
-43
-81
-111
129
11
3
-17
7
-3
53
-1
-97
-65
-51
-33
-127
-17
19
17
-23
-19
9
43
-87
-51
-33
-47
-67
-117
-35
155
1
23
43
-83
-93
-65
-37
-46
-61
-117
-71
135
1
-15
-25
-13
11
57
-53
-111
-45
-59
-99
-103
-7
-1
-11
-25
-17
9
53
-39
-113
-89
-53
-55
133
-25
-37
-19
-121
-101
-65
-69
-61
-87
-147
-35
-31
7
9
-103
-67
-63
-79
-21
-77
-11
-15
-41
-51
-25
-5
34
-81
-123
-77
-119
-93
131
-9
-31
-27
-11
3
195
-45
-107
-71
-39
-47
-49
-85
-97
129
15
-12
-7
-1
13
81
17
-85
-75
-25
-15
-23
-49
-99
19
17
29
34
71
41
-63
-51
-29
-9
-15
-45
-101
3
45
11
15
11
19
47
55
-55
-63
-43
-19
-23
-37
-115
-45
39
23
3
-1
21
39
79
-41
-73
-25
-11
-21
-15
-77
-57
38
35
17
9
15
27
73
-19
-85
-45
-29
-23
-27
-67
-83
25
45
15
-5
5
23
75
-1
-79
-51
-31
-25
-33
-57
-103
13
161
19
7
3
27
67
33
-75
-63
-25
-11
-19
-45
-115
-7
43
23
1
9
23
47
45
-79
-61
-23
-15
-33
-44
-95
-33
35
31
5
-11
131
25
57
-57
-79
-43
-33
-27
-37
-94
-57
35
25
3
-19
137
25
69
-33
-97
-53
-31
-21
-45
-77
-78
149
23
-5
-11
3
7
193
5
-41
-13
-29
-49
-103
5
31
17
-7
3
11
47
19
-83
-73
-37
-103
-15
153
7
-15
-3
17
35
39
-79
-77
-41
-15
-29
-43
35
19
-11
-7
9
19
55
-47
-31
-21
-39
-93
-85
27
139
-3
-13
129
15
77
-31
-87
-49
-17
-31
-33
-77
-101
17
15
-9
-11
3
17
58
-5
-33
-27
-33
-56
-105
11
21
13
-15
129
7
41
31
-77
-81
-39
-29
-37
-61
27
7
-11
-5
8
-67
-81
-49
-25
-42
-53
-103
-63
19
-5
-11
15
51
-61
-91
-61
-41
-41
-49
-87
-95
3
11
-9
-14
-7
-59
133
20
11
-78
-69
-43
-27
-29
-57
-109
-13
3
17
163
51
-67
-63
-28
-25
-29
-55
-99
-39
31
55
-59
-63
-37
-27
-29
-41
5
-3
9
67
-31
-77
-55
-27
-23
-37
-79
-103
11
11
3
-13
9
17
193
-15
-87
-63
-39
-29
-47
-81
-129
-27
-9
-41
-61
-53
-53
-25
-47
-153
-147
-115
-99
-117
-123
-177
-93
-41
-43
-53
-37
-25
21
43
-59
-71
-29
-11
3
-27
-59
-9
193
25
171
-21
-41
-19
1
-5
-5
-55
-57
25
43
17
7
23
27
75
-19
-73
-53
-29
-7
-23
-59
-73
9
29
5
-15
15
19
59
3
-77
-60
-31
-23
-43
-59
-101
-9
17
11
-5
-5
13
45
27
-81
-71
-45
-31
-29
-57
-107
-21
19
1
-21
-17
5
29
33
-79
-77
-51
-39
-33
-43
-103
-53
15
15
-13
-25
-5
33
53
-65
-85
-49
-37
-39
-53
-95
-69
13
-1
-25
-25
-19
3
43
-65
-94
-65
-43
-45
-41
-77
-89
-5
9
-11
-23
-17
-1
53
-29
-99
-77
-49
-29
-55
-79
-113
-23
3
-21
-31
-15
-23
17
-17
-63
-49
-63
-77
-125
-51
-13
-19
-33
-29
-21
5
1
-103
-105
-69
-51
-63
-81
-135
-79
-13
-53
-23
-7
19
-67
-67
-71
-63
-125
-97
-15
-25
-41
-59
-39
-7
27
-63
-101
-71
-53
-45
-51
-83
-105
-9
-23
-13
15
55
-5
-75
-61
-35
-17
-29
-51
-85
59
35
-13
45
15
3
8
21
59
64
-51
-60
-27
-13
-17
-25
-79
-25
37
35
15
5
15
35
55
-41
-67
-29
-11
-9
-27
-69
-57
33
31
13
-3
15
31
67
-27
-65
-27
-7
-14
-15
-47
-84
27
29
19
3
7
23
67
13
-65
-41
-31
-13
-9
-47
-94
11
31
145
-3
3
19
55
153
-63
-49
-27
-19
-15
-41
-78
-15
129
19
31
55
-57
-53
-17
-23
-12
-25
-79
-47
24
13
-7
-9
131
23
67
-41
-76
-53
-37
-73
-61
5
-7
137
17
65
-21
-21
-15
-23
-57
-83
11
19
-3
-9
9
13
51
11
-79
-46
-21
-29
-19
-43
-101
-15
19
7
-11
-9
23
51
23
-73
-61
-27
-29
-39
-42
-99
-39
27
145
-11
-21
5
23
43
-61
-73
-41
-29
-29
-29
-91
-47
25
17
-3
-14
-5
11
59
-21
-75
-51
-25
-33
-41
-75
-67
13
11
139
5
65
-1
-89
-53
-37
-43
-77
11
17
3
-9
6
9
45
13
-83
-57
-31
-19
-28
-49
-93
-7
23
-3
-21
-3
7
41
29
-71
-65
-25
-21
-25
-47
-92
-23
25
-5
-10
-3
-3
25
50
-65
-59
-41
-31
-31
-47
-91
-57
13
5
-19
-12
-1
19
57
-61
-79
-47
-25
-29
-40
-79
-79
9
-5
-27
-26
-13
7
43
-35
-93
-55
-29
-43
-39
-13
-3
29
-75
-43
-37
-41
-61
-101
-23
135
-3
-17
-17
3
31
23
-75
-73
-43
-29
-43
-47
153
-9
179
-21
-17
-47
-75
-47
31
139
-5
-3
131
-47
-71
-47
-21
-29
-27
-61
-77
9
19
-5
-5
-15
17
51
-7
-75
-19
-33
-51
-95
-3
143
7
-13
169
-21
-33
-59
-15
-7
11
-115
-113
-95
-117
-161
-115
-57
-75
-95
-93
-65
-105
-115
-75
-49
-29
-35
-64
33
33
139
27
51
89
-1
-51
-13
11
17
1
-17
-61
23
41
25
-35
-83
3
153
11
-5
3
7
-59
-40
-27
-23
-43
-87
-29
9
3
-14
-13
-1
11
57
-57
-77
-47
-43
19
141
-29
-47
-77
-94
-1
3
-7
-31
-15
7
41
-29
-31
-33
-47
-61
-107
-9
131
-15
-39
-23
-13
21
1
-87
-91
-47
-43
-43
-57
-103
-33
5
-17
-31
-27
-15
7
29
-79
-79
-43
-57
-99
-55
3
-15
-29
-41
-15
-13
33
-71
-97
-59
-47
-47
-59
-81
-87
-15
-12
-29
-29
29
-55
-109
-77
-61
-55
-61
-87
-17
-49
-61
-42
-31
17
-53
-129
-91
-63
-97
-123
-39
-15
-39
-47
-23
-25
7
-9
-105
-89
-59
-41
-51
-59
-119
-37
7
-9
-27
-31
-13
-84
-89
-43
-25
-33
-57
-99
-47
35
131
-41
-25
-65
-49
35
19
133
129
15
27
59
-73
-3
133
31
65
147
-63
-31
-5
-3
-13
-35
-87
9
35
7
59
-61
-45
-25
-73
-23
-1
-7
5
33
63
-53
-61
-19
-11
-7
-23
-65
-39
25
131
-5
15
-71
-27
-21
-17
-21
-61
-73
33
25
63
-5
-75
-40
-13
-13
-11
-51
-79
25
35
3
-11
133
25
49
27
-75
-43
-13
-85
-17
19
-5
-11
129
3
34
47
-71
-62
-21
-19
-13
-43
-77
-37
-13
-7
5
-89
-25
-43
-73
-59
165
11
-17
-21
178
-33
-85
-43
-29
-15
-39
-59
-91
17
17
-13
-17
-9
5
39
-13
-80
-57
-45
-89
17
27
-9
-27
-23
19
-87
-69
-31
-31
-29
-43
-93
-17
19
-5
-19
-13
165
-67
-73
-41
-29
-27
-49
23
-3
-17
-23
-5
141
57
-65
-85
-53
-23
-13
-29
-89
-65
21
1
-23
-25
7
13
55
-35
-81
-43
-23
-17
-25
-45
-77
11
7
-23
-27
1
3
49
131
-83
-64
-27
-19
-35
-53
-93
-3
20
-23
-39
-15
-9
33
13
-93
-67
-27
-37
-27
-45
-99
-27
19
-13
-15
-31
-13
9
27
-81
-77
-41
-27
-29
-45
-107
-61
19
-5
-17
-30
-9
15
39
-73
-85
-39
-27
-43
-47
-88
-85
15
3
-19
-31
-21
-9
43
-61
-89
-57
-37
-21
-35
-67
-103
9
139
-19
-29
-23
-3
-91
-60
-35
-49
-95
-1
15
-11
-31
-27
1
39
15
-77
-64
-37
-25
-29
-43
-97
-13
19
-1
-27
-27
-9
29
43
-83
-71
-19
-7
-23
-27
-75
-27
47
-11
61
-59
-77
-35
-27
-25
-29
-63
-59
27
7
-15
-19
-5
-29
-79
-9
-11
-63
141
-13
-39
1
3
35
-25
-111
-71
-63
-63
-37
-79
-95
-77
-73
-55
-57
-159
-139
-93
-99
-125
-51
3
-9
-9
-9
11
47
201
-46
21
151
133
-45
-5
73
47
19
5
31
171
71
-13
-67
-13
3
-11
-25
-57
-53
41
25
3
-15
17
7
51
-13
-13
-19
-15
-43
-77
15
19
-1
-13
-3
5
33
143
-97
-69
-23
-55
-105
-15
31
-7
-28
-23
-9
15
17
-93
-79
-39
-29
-37
-47
33
-9
-25
-27
-5
-75
-91
-43
-29
-79
-69
19
-1
-27
-35
-15
-11
37
-45
-105
-57
-35
-29
-26
-71
-95
141
147
-23
-33
-17
-3
167
-17
-115
-73
-45
-59
-113
-5
9
-25
-19
-113
-79
-43
-59
-107
-53
11
-43
-35
-15
137
-105
-109
-59
-59
-111
-87
-47
-31
11
-93
-119
-71
-51
-55
-63
-97
-99
-5
-25
-49
-53
-51
-19
19
-67
-121
-79
-45
-47
-47
-79
-113
5
3
-39
-43
-31
-15
7
-11
-109
-73
-41
-27
-31
-56
-103
5
29
-15
-39
-19
3
27
25
-95
-67
-29
-15
-9
-33
-79
-9
49
3
-19
-11
145
31
54
-61
133
-59
21
5
-7
67
-45
-67
-27
-21
-41
-55
43
35
5
-13
3
29
64
-9
-81
-32
7
131
-19
-33
-73
39
-11
47
21
-77
-57
-13
-27
-79
137
175
5
-9
-1
45
-61
-63
-23
-1
-9
-27
55
146
133
-17
7
15
-79
-31
-3
-11
-23
-61
-55
-13
-21
132
23
-77
-31
-9
-45
-71
163
-3
57
7
-89
-47
-13
-37
-83
5
171
15
-15
-9
-63
-25
-13
-15
-29
-25
-21
3
21
-37
-13
-15
-29
-81
-43
-21
-29
-3
-51
-5
-25
-19
-51
18
-11
5
-19
-11
-21
-37
-89
29
39
-9
-33
-21
130
49
3
-91
-65
-23
-11
-17
-5
45
131
-7
23
19
-75
-77
-27
-21
-27
-29
-78
19
-23
-35
-13
5
41
-63
-95
-47
-11
-17
-27
-75
-65
25
19
-23
-43
-15
3
171
-41
-95
-43
-17
-15
-39
-71
-76
17
15
-11
35
-15
-29
-13
-31
-49
-89
1
35
-29
-13
-107
-93
-29
-13
-19
-47
-107
-23
37
-11
-47
-25
-7
15
31
-91
-101
-41
-17
-27
-47
-85
-51
-31
-41
-25
-1
-97
-15
-27
-61
-73
41
-43
-11
-27
-93
-47
-5
-13
-11
-47
161
-19
-31
-19
-3
37
-5
-107
-63
-25
-7
1
39
-3
-27
-29
-12
-85
-75
-21
-11
-13
-31
-73
17
-25
-15
-11
13
49
-81
-104
-31
-57
-97
-89
-63
-91
-71
-53
-25
-117
-41
-107
-83
-91
-101
-129
-13
-39
-41
-11
131
-73
45
147
21
165
63
181
-61
-39
7
21
145
-17
-65
11
61
23
11
161
51
-17
-37
-67
-31
55
11
-25
-31
49
-63
-85
-31
-13
-25
-33
-65
-65
45
149
-15
-25
-17
-5
39
-43
-101
-43
-31
-17
-33
21
25
-9
-29
-25
-7
165
-13
-109
-75
-25
-19
-31
19
39
-23
133
13
11
-109
-87
-43
-11
-29
-27
21
-33
-13
31
-99
-104
-47
-43
-33
-43
-91
-61
27
133
-45
-57
-33
-15
39
-61
-17
-27
-43
-83
-99
17
19
-41
-59
-33
-27
-121
-81
-42
-35
-49
-71
-115
-11
-5
-55
-41
1
-107
-49
-47
-49
-41
133
-33
-61
-53
-35
-15
13
-112
-113
-61
-37
-47
-59
-117
-57
-51
-51
-21
-9
23
-91
-125
-59
-59
27
7
-27
-39
-11
-6
45
-47
-81
-45
-7
-1
-75
29
-47
9
-17
-3
41
-73
-69
-13
-17
-77
23
-5
-13
137
29
55
-65
9
133
-13
-61
-37
55
41
5
-43
-83
-41
9
-5
-13
-43
-63
47
37
-9
-19
-1
11
55
-12
-91
-63
-13
15
-17
-31
-79
27
51
9
15
57
19
-77
-77
-13
3
-15
-29
-85
15
43
15
-15
-27
35
-73
-79
-39
-1
-11
-27
-77
-23
49
17
-17
-25
-5
7
49
-45
-23
-71
-53
37
31
-15
-43
-9
23
53
-39
-99
-57
-11
-5
-77
25
35
-12
3
51
-11
-89
-63
-15
-5
-13
-39
-67
4
165
7
-25
-29
5
33
21
-89
-83
-21
-3
-21
-41
-77
-17
53
21
-17
-33
-15
9
33
-86
-96
-36
-5
-27
-39
-77
-33
49
21
-31
-13
39
-57
-23
-9
-59
41
-23
-97
-67
-17
1
-19
-57
-87
25
39
131
-7
37
7
-101
-73
-19
-1
-21
-43
-79
133
43
137
-29
-28
-11
19
161
-97
-95
-47
-11
-21
-37
-81
-39
47
139
-29
-43
-13
137
41
-64
-14
-1
-57
31
24
-15
-37
-107
7
-13
-57
35
-9
39
-17
-27
-1
-31
-51
31
-13
-41
21
47
131
-33
135
31
-85
-105
-51
-9
-17
147
-27
-31
-35
-9
39
-59
-105
-19
29
33
-1
-37
49
-79
-25
-1
-25
-47
-78
19
35
9
-31
-25
-5
33
141
-91
-78
-31
-9
-13
-39
-79
-5
49
7
-17
-11
23
-79
-85
-31
-15
-17
-31
-81
-39
49
27
-23
5
45
-69
-117
-27
-39
-97
-89
5
-13
-61
-79
-65
-119
-57
-129
-89
-81
-89
-127
1
139
161
17
77
173
11
11
57
21
-9
-71
-19
3
-65
-87
-45
-11
-65
3
-35
-15
7
53
-53
-21
-11
-23
29
25
-31
-11
153
-29
-109
-3
-19
-46
-87
3
23
-47
37
11
-37
-43
15
-89
-103
-49
15
29
-81
-107
-63
-27
-69
-67
155
17
-15
-45
-29
-123
-75
-43
-25
-97
-5
25
-11
-45
-39
-41
7
-35
-135
-111
-33
-31
15
-25
-57
-65
-47
-23
-15
-37
-41
-59
-117
-61
19
-133
-71
-45
-47
-57
-103
-81
-3
-5
155
-67
-115
-81
-45
-23
-39
-77
-85
11
37
-13
-109
1
-5
-29
51
21
-19
-25
129
41
-7
3
-21
25
-13
-23
-1
29
11
5
-5
-59
-25
69
19
61
-49
-85
-31
5
13
-17
-11
135
63
-17
-7
11
-65
133
-94
-63
-1
-27
-75
19
-15
-15
-1
29
147
-87
-77
-29
-13
-21
41
-29
-93
-47
-7
-3
-25
-63
-55
163
33
185
-37
-103
-61
-25
3
-9
35
163
2
-25
-17
-17
-109
-69
-79
23
-17
-89
-79
-37
-7
3
-13
-41
-25
145
25
-85
-87
-49
-9
-7
-23
-77
-45
-13
-41
-25
-63
-103
-53
-17
-57
-61
-37
-25
-13
-107
-73
-29
1
-67
129
-35
-23
-3
-103
-85
-15
-29
-27
-37
23
-95
-87
-41
-21
-79
-27
47
155
-17
-35
-19
19
41
-75
-99
-9
-17
-71
-39
51
25
-7
-43
-31
-9
37
-49
-99
-61
-29
-1
-63
33
37
9
-9
163
-23
-109
-5
-13
-51
-23
-29
9
-115
-13
-17
-43
-93
7
-31
-5
149
-97
-107
-53
-27
-23
-31
-77
19
-15
-39
-37
-9
37
-73
-105
-67
-19
-69
-75
169
29
-3
-31
-25
-15
43
-35
-111
-69
-9
-49
-83
33
167
131
-23
-15
-5
43
-7
-93
-67
-27
-11
-79
19
43
21
-15
-29
-19
27
25
-83
-13
-5
-15
-73
-5
185
29
5
-37
-25
137
45
-77
-101
-43
-11
1
-13
-31
-23
-9
33
-69
-110
-79
-47
-30
-43
-73
-103
-13
-11
-47
-67
-89
-81
-35
-115
-177
-155
-107
-73
-85
-108
-145
-31
-5
-31
-47
-29
-7
37
9
-81
-49
-19
25
161
5
-55
49
67
59
33
15
11
37
49
-61
-57
-19
17
19
5
-57
11
75
51
19
-5
-9
17
37
-71
-81
-37
-15
-13
-5
-67
-43
45
33
5
-29
-23
-9
41
-75
-111
-61
-29
-9
-21
37
-11
-33
-21
-15
31
-41
-110
-73
-39
-13
-21
-35
-35
23
-19
-107
-87
-7
-43
35
11
-27
-43
-25
1
131
-119
-103
-27
-45
-87
-19
41
129
-15
-47
-35
-13
7
-109
-111
-69
-41
-25
-31
-69
-59
25
19
-15
-45
-30
-29
25
-79
-127
-85
-53
-31
-39
-77
-87
11
133
-19
-61
-49
-37
11
-73
-130
-93
-64
-39
-35
-77
-115
-3
7
-21
-31
-55
-51
-15
-49
-37
-67
-118
-23
17
-25
-45
-49
-51
-29
-15
-133
-127
-75
-57
-41
-49
-107
-39
21
-9
-31
-64
-49
-29
11
-105
-118
-77
-39
-37
-38
-85
-47
33
15
7
-41
-35
-17
37
-57
-109
-65
-25
-3
-15
-47
-53
43
43
19
-15
-15
-11
51
-19
-105
-61
-23
7
7
-17
-65
33
53
27
37
-64
-19
-5
-61
21
65
43
7
-11
1
-31
-10
-67
-15
63
43
-59
-95
-37
-23
3
53
43
15
-9
53
-33
-85
-47
-19
-33
-53
45
49
-5
3
47
-1
-87
-57
-31
-5
3
-21
-71
37
59
17
-5
-19
-9
153
7
-92
-69
-41
-15
-73
-13
61
31
-1
-21
-11
145
37
-87
-89
-43
-15
-3
-5
-59
-31
57
43
15
-13
-15
-13
43
-69
-91
-51
-35
-15
1
-55
-59
39
35
1
-19
-30
-17
39
-31
-11
-7
-27
-75
31
171
9
-5
-23
-12
25
-5
-37
-23
-83
5
-17
-27
-29
7
-13
-37
41
25
-7
-17
-35
-11
19
-79
-103
-52
-23
-13
-15
-61
-45
49
39
7
-23
-25
-5
161
-63
-105
-5
-5
-46
-61
-29
146
-21
-119
-81
-9
-41
-77
15
39
-27
25
7
-37
-21
-25
-75
19
-11
23
-91
-97
-56
-37
-21
25
-9
-23
-109
-63
-31
-51
-65
-1
-17
-27
-17
155
-31
-23
-47
-81
9
-19
-33
-23
-127
-95
-59
-39
-23
-37
-93
-15
37
131
-27
-35
-37
-9
-5
-117
-105
-63
-41
-27
-37
-75
-37
38
-21
-31
-13
39
-81
-111
-49
-23
-55
-53
51
-29
-17
31
-67
-31
-13
-3
-37
-61
43
40
-1
-9
-13
-11
29
-31
-115
-75
-30
-7
2
-29
-69
29
53
19
-7
-19
-12
21
5
-93
-79
-43
-15
1
-13
55
25
5
-25
-29
-25
133
-103
-111
-61
-57
-45
-57
-119
-69
-7
-33
-59
-87
-105
-87
-47
-161
-177
-129
-111
-93
-71
-107
-89
-9
137
193
-27
-75
-29
5
21
33
11
75
15
4
185
-7
-11
-23
-63
33
194
33
3
3
-9
21
7
-95
-81
-45
-11
-65
-1
49
41
-9
-17
-15
-79
-97
-59
-30
-15
-15
-63
-31
49
21
-5
-31
-35
-27
-123
-71
-37
-33
-67
161
151
-7
-23
-33
-27
149
-59
-115
-85
-45
-37
-23
-39
-71
147
31
9
-27
-27
-29
129
-23
-121
-87
-47
-7
33
-105
-99
-75
-47
-31
-35
39
21
-31
-127
-73
19
9
-25
-43
17
-97
-59
-55
-43
-75
-89
130
-1
-27
-47
-43
-57
-17
-61
-155
-117
-84
-59
-41
-57
-113
-23
-39
-41
-49
-35
-59
-53
-49
-97
131
-17
-45
-37
-33
131
-103
-118
-73
-42
-39
-27
-61
-45
33
141
-27
-19
161
-75
-103
-67
-29
-9
-53
55
51
147
1
-5
-11
165
-33
-95
-65
-23
-9
2
5
3
-1
145
147
-29
-5
-49
19
59
43
17
-1
-7
133
31
-85
-87
-43
-13
-9
4
-37
39
29
-5
-13
131
-89
-47
-13
-31
-31
146
-1
41
-33
-7
-25
-65
173
59
167
135
-81
-63
-48
-11
-61
25
58
33
3
-13
-19
15
15
-94
-5
-64
-7
193
37
17
131
-15
-13
29
-85
-97
-47
-29
-17
-13
-49
-27
53
27
133
-9
-7
-7
21
-67
-33
-25
-13
-33
-61
47
43
21
15
-47
-119
-69
-39
-23
-9
49
15
-3
-99
-81
-43
-15
-15
-29
61
17
-11
-11
-11
5
23
-91
-89
-47
-27
-31
-15
-63
-13
181
21
21
-15
165
-73
-105
-61
-37
-37
33
-47
-113
-77
-39
-29
-21
-29
-59
39
37
9
-11
-11
-23
19
-31
-43
-77
21
51
155
-15
3
-7
-101
-95
-45
-27
-67
161
-5
5
-91
-101
-61
-37
-41
-30
-57
-31
51
25
-13
-29
-15
-15
21
-89
-110
-73
-35
-29
-25
-51
-51
161
147
-1
-17
-17
-25
162
-25
-13
21
43
13
-21
-111
-91
-41
-41
-33
-31
-77
7
47
23
-11
-3
-9
-9
-9
-107
-99
-57
-27
-21
49
37
129
-9
13
-93
-119
-63
-31
-40
-27
-53
-3
-13
-15
-21
19
-71
-121
-91
-51
-47
-61
-73
-97
-12
-23
-59
-75
-189
-165
-131
-113
-101
-115
-129
-29
-9
-25
-37
-13
-21
15
5
-89
-64
-19
1
11
9
-29
41
203
51
23
31
165
-31
-7
-7
130
-49
-9
67
33
20
-7
23
-85
-109
-53
-29
-29
-47
-1
-19
-59
-25
-67
163
39
3
-21
-21
-21
5
-47
-121
-91
-57
-25
-31
-47
-77
19
43
1
-23
-21
-21
-3
-29
-123
-47
-41
-27
-85
-11
35
133
-25
-29
-119
-73
-49
-47
-47
-63
-43
29
141
-29
-37
-21
-30
133
-117
-142
-92
-63
-61
-49
-67
13
-17
-41
-39
-35
-7
-83
-57
-59
-91
5
17
-7
-39
-31
-39
-144
-69
-57
-65
-107
-15
5
-21
-45
-43
-39
-139
-130
-91
-63
-101
-43
13
-21
-45
-51
-45
-53
-11
-137
-141
-113
-67
-60
-59
-91
-59
23
-5
-25
-47
-35
-33
-13
-99
-129
-96
-61
-58
-47
-65
-64
19
31
133
-21
-11
-11
9
-57
-115
-75
-33
-25
-25
-29
-47
27
55
37
130
137
137
145
-9
-93
-77
-33
-13
-17
-17
-59
19
179
45
11
141
145
19
21
-93
-79
-31
-13
-5
-15
-51
-3
69
39
15
3
15
7
23
-68
-91
-23
-31
-45
-25
69
51
11
1
9
139
35
-59
-99
-56
-27
-15
-21
-37
-43
55
63
21
5
11
5
25
-43
-105
-69
-21
-17
-9
-27
-55
47
69
23
3
-1
1
17
-13
-101
-75
-37
-11
-11
-23
193
35
1
5
11
137
-5
-101
-81
-49
-29
-27
-25
-63
5
49
153
9
-14
-1
7
19
-93
-102
-63
-29
-25
-23
-55
-21
53
41
13
-14
1
-7
23
-71
-111
-75
-37
-25
-35
45
-25
29
1
-3
-4
-111
-95
-49
-29
-71
19
-3
-63
-9
57
31
135
-15
1
-10
19
-91
-35
-31
-39
-59
-43
37
167
139
-3
-79
-29
-25
-30
-39
-65
175
49
21
-9
17
-85
-37
-39
-69
35
63
163
133
-11
-9
-103
-91
-61
-39
-37
-39
-71
-5
37
33
129
-21
-15
-13
17
-109
-117
-43
-51
-63
-29
63
27
-7
-25
-17
-7
17
-83
-117
-73
-49
-33
-41
-65
-59
29
31
1
-15
-15
5
21
-47
-119
-89
-35
-25
-19
-39
-63
43
53
11
-9
-5
-7
141
-25
-121
-91
-49
-31
-23
-41
-73
17
51
154
-7
-9
9
3
129
-105
-99
-60
-39
-41
-37
-63
-9
70
43
19
133
1
11
19
-87
-95
-53
-23
-23
-33
-53
-25
65
41
17
-9
-118
-73
-51
-41
-51
-71
15
-33
-55
-35
-143
-123
-111
-147
-35
-9
-38
-45
-35
-23
7
-14
-113
-83
-21
-3
2
-9
-29
181
45
33
29
29
37
-79
-77
-27
3
-3
-13
-39
15
75
41
15
-5
139
15
41
-79
-99
-55
-27
-23
-31
-47
-39
69
38
13
-9
-5
133
31
-73
-125
-71
-41
-31
-25
-55
-59
23
-21
-15
-5
-63
-31
-31
-64
-79
-15
-135
-109
-65
-45
-35
-49
-77
3
47
-9
-121
-79
-51
-37
47
157
-9
-29
-95
-133
-49
23
-3
-20
-107
-63
-51
-49
-31
-27
-15
-11
-41
-151
-113
-57
-15
21
-17
-31
-47
-41
-23
-33
-145
-141
-93
-63
-69
-69
-89
-55
39
3
-25
-45
-39
-25
-19
-76
-67
-93
-85
27
135
-13
-29
-31
-27
3
-79
-143
-104
-67
-67
-76
169
43
-13
145
-39
-123
-91
-57
-23
-29
193
25
5
21
11
-105
-89
-57
-29
-15
-17
195
133
17
25
161
-93
-91
-42
-17
-13
-17
-45
-21
83
53
33
15
23
27
29
-77
-99
-61
-23
-9
-21
-43
-39
59
67
33
7
21
21
43
-51
-107
-70
-31
-17
-23
-41
-57
53
63
27
9
19
17
37
-27
-117
-81
-43
-21
-21
-33
-63
49
75
33
9
15
21
43
7
-111
-93
-44
-25
-21
-31
-57
21
73
37
7
-11
13
19
146
-107
-95
-55
-23
-27
-31
-65
-9
79
-3
27
-57
-31
-29
-35
-57
-37
65
43
21
131
29
-63
-117
-77
-37
-15
-25
65
53
7
5
25
-37
-111
-81
-45
-31
-21
-51
-71
43
192
29
-9
129
131
-129
-95
-51
-41
-29
-38
-81
7
69
25
-9
-7
145
-111
-107
-63
-25
-15
-29
-69
-9
-7
7
19
35
-39
-57
-53
50
7
27
-63
-123
-87
-37
-29
-27
-53
-67
40
53
21
-5
-11
5
25
-97
-49
-29
-73
23
63
27
-9
-11
-3
25
5
-111
-113
-39
-5
67
-13
-7
-107
-44
-79
-43
53
23
3
-21
-13
-1
27
-83
-137
-89
-45
-29
-43
11
-15
-15
-1
29
-57
-130
-107
-57
-31
-41
-47
-79
33
57
152
-7
25
-27
-39
-35
-52
-84
17
71
35
-5
-5
15
-107
-103
-63
-41
-29
-41
-71
41
15
-1
135
135
37
-65
-37
-27
-37
-73
-39
55
45
21
-1
5
-59
-125
-85
-40
-57
-61
19
-9
-5
-5
7
-53
-154
-12
-91
-81
-87
-97
-155
-81
-71
-59
-81
-183
-46
-57
-85
7
67
145
163
33
63
-73
-89
-47
-9
129
93
147
159
33
69
-51
-109
-63
193
35
129
7
131
37
-91
65
23
-3
18
-15
-127
-105
-53
-47
-39
-41
33
-1
-15
-9
-1
-129
-79
-49
-43
-47
-79
-31
59
39
1
-17
-17
-13
35
-107
-141
-91
-59
-41
-41
-79
-49
49
35
-9
-15
-5
-7
41
-65
-145
-100
-59
-35
-41
-65
-77
29
41
3
-11
-7
-17
153
-41
-140
-113
-53
-38
-49
-61
-109
5
43
9
-19
-23
-17
1
-25
-129
-126
-79
-59
-61
-69
-119
-31
45
-7
-25
-47
-37
-31
-13
-129
-71
-67
-71
-115
-71
31
-1
-29
-37
-39
-29
-5
-131
-169
-107
-81
-71
-69
-101
-101
23
7
-13
-39
-45
-30
11
-93
-164
-127
-75
-61
-61
-87
-109
27
34
3
-21
-27
-15
19
-43
-141
-100
-59
-47
-37
-61
-91
37
63
21
7
-15
135
27
5
-108
-97
-47
-27
-27
177
147
139
17
-93
-111
-67
-31
-31
-29
-67
-9
149
3
-103
-71
-45
-47
-39
71
63
33
11
145
17
181
-31
-5
-11
47
-11
-47
-27
-27
-37
-79
157
69
49
19
5
13
21
-109
-57
3
83
59
11
7
27
147
185
-75
-33
-25
-21
-65
-31
63
59
17
17
43
-73
-121
-85
-43
-17
-21
-49
65
27
5
5
11
41
-43
-123
-95
-53
-29
-35
-49
-87
161
135
-3
133
9
65
40
11
-9
-1
147
31
-105
-117
-59
-44
-29
-43
-67
13
57
-89
-39
-25
-43
-63
-53
59
59
5
37
-61
-131
-95
-61
-41
-15
-121
-109
-62
-35
-91
146
65
39
-3
-5
9
27
17
-111
-107
-61
-39
-35
-35
-89
-9
73
47
13
-15
5
19
165
-41
59
-5
11
11
49
-73
-131
-30
-27
3
11
5
39
-41
-133
-29
-43
-51
189
31
-12
-129
-127
-47
-91
7
7
29
-109
-121
-81
-47
-29
-43
-81
39
137
9
-135
-85
-71
181
59
21
-37
-33
-49
-77
33
61
31
3
131
11
31
3
-107
-103
-43
-29
-33
51
141
23
155
-59
-13
183
-9
-1
-105
-131
-51
-61
-167
-105
-117
-142
-21
-7
47
-81
-31
-7
-1
-13
-54
203
103
209
35
-71
-81
-41
-13
-15
-21
-77
133
31
17
185
-93
-25
-17
-39
-63
-43
-63
-131
-97
-57
-47
-75
171
-5
-1
-7
29
-19
-129
-99
-60
-37
-29
-57
-95
165
59
43
-7
131
7
157
7
-125
-121
-77
-59
-41
-60
-97
-13
61
35
-5
-13
-3
-123
-139
-43
-48
-93
-47
177
163
3
-11
-13
-64
-91
165
133
-63
-51
-67
-109
23
41
9
-29
-13
-7
9
-33
-141
-129
-87
-63
-59
-71
-123
-43
-26
-13
-5
-153
-149
-105
-79
-75
-77
-116
17
-33
-39
-31
-13
137
-129
-153
-125
-79
31
27
-7
-27
25
-85
-69
-51
-79
17
-3
-3
129
41
-33
-113
-96
-47
-29
-33
-47
-71
31
67
41
143
21
11
43
19
-107
-99
-53
-27
-29
-31
-84
17
83
55
149
13
27
41
163
-93
-21
-28
-28
-75
-1
83
37
59
-69
-107
-53
-27
-13
-23
-61
-33
75
81
39
147
71
-29
-11
-15
-41
-55
57
17
25
29
187
131
-115
-97
-53
-23
-31
33
83
51
19
15
149
171
-97
-55
-21
-29
-33
-77
-13
201
65
13
37
43
-69
-105
-29
-27
-67
21
3
19
17
54
-53
-121
-83
-41
-37
-31
55
59
29
143
15
15
63
-23
-115
-93
-47
-30
-35
-47
-73
163
65
33
11
145
11
43
1
-121
-99
-59
-47
-87
9
69
47
11
3
7
149
25
-97
-105
-67
-43
-36
-37
-87
-33
75
55
17
2
5
17
39
-79
-45
-41
-35
-69
-57
59
9
133
17
-65
37
-15
-133
-95
-55
-37
-33
-39
69
169
11
-121
-113
-63
-45
43
145
-5
29
-96
-117
-43
56
-15
-11
-75
-137
-87
-63
-64
-73
43
52
29
-9
-7
3
169
-45
-63
-83
11
61
18
165
-7
-121
-107
-65
-47
-33
-49
65
47
17
133
13
19
19
-105
-119
-35
-39
67
179
29
-9
133
17
55
-73
-49
-39
-33
39
3
133
19
-113
-79
-46
-41
-59
37
13
51
-9
-61
-47
-27
39
9
-13
-11
-148
-107
-108
-19
-31
-61
-73
-77
-59
-30
-145
-169
-61
-31
170
59
91
-17
-73
-33
-15
5
-27
71
171
165
77
-7
-39
-23
-11
-39
-71
39
71
55
21
19
23
169
13
-109
-41
-83
5
69
49
141
29
31
-88
-126
-83
-53
-59
45
-15
146
35
-83
-122
-61
-47
-79
43
143
-7
5
6
47
-59
-13
-93
-73
-47
-35
-67
-89
27
57
33
-3
-1
129
33
-19
-133
-107
-85
-65
-104
5
43
27
-3
-3
-7
21
7
-119
-123
-91
-67
-61
-69
-99
-39
43
29
-1
-15
-15
-5
11
-117
-141
-65
-69
-109
-61
39
19
135
-31
-17
-97
-161
-123
-93
-105
11
5
-7
-37
-33
-19
-127
-97
-13
33
133
-14
-27
-17
15
-31
-93
-73
-69
-77
-125
-25
27
19
130
-13
-19
-113
-125
-83
-55
-46
-59
-79
-29
27
-79
-47
-43
-23
-61
-45
67
69
41
147
21
-31
-97
-79
-47
-15
-19
-47
-61
59
77
54
27
29
39
53
-1
-91
-81
-43
-17
-5
61
41
-89
-99
-73
9
67
59
43
19
21
169
-95
-64
-39
-25
-33
-61
-19
37
9
23
31
65
-57
-95
-73
-44
-33
-29
-49
203
177
149
-91
-83
-19
-52
-81
41
64
53
23
57
-91
-63
-87
133
49
50
27
39
-87
-99
-74
-45
-25
65
173
31
7
3
-77
-107
-75
-63
27
141
135
13
-83
-51
-37
-39
51
57
41
13
15
25
-117
-41
-39
-55
-86
23
49
47
19
37
35
-105
-110
-75
-43
-43
-19
55
167
31
5
7
149
35
-81
-103
-64
-55
-47
-51
47
47
23
7
49
-61
-105
-79
-67
-43
-37
-73
-79
168
11
-3
5
47
-31
-121
-95
-63
-41
-43
25
41
11
5
163
131
179
27
149
133
131
-57
-59
-83
-49
43
38
11
25
45
-79
-47
-75
-57
137
19
19
147
21
139
181
-1
7
184
17
166
-39
-43
39
177
39
5
167
-112
-83
-67
-89
-31
-64
-29
-123
-179
-121
-112
-123
-145
-21
7
3
-11
145
21
61
15
-81
-59
-29
-13
-57
55
93
81
177
61
39
-67
-67
-47
-43
-23
-35
-69
-5
67
59
39
21
19
27
49
-73
-92
-67
-51
-39
-41
-77
-39
37
51
21
7
15
9
51
-63
-107
-93
-64
-43
-47
-79
-69
31
27
19
145
13
19
45
-27
-111
-93
-73
-55
-37
-63
-87
147
37
25
11
9
9
37
-13
-121
-101
-81
-59
-45
-81
-95
-11
9
7
135
18
13
-105
-65
-56
149
3
11
33
-89
-121
-93
-77
-79
-55
-89
-75
35
-5
38
-64
-127
-99
-79
-91
-99
1
-11
-13
-15
17
-41
-137
-109
-94
-77
-69
-21
19
-5
-23
-17
-105
-93
-77
-53
13
-1
-15
-31
-23
3
-7
-123
-121
-106
-79
-79
-85
-107
-63
23
139
135
-13
-17
-15
155
-77
-123
-95
-71
-85
23
135
143
-31
-109
-87
-61
-41
-43
-64
-79
19
19
13
-47
-39
-87
45
23
29
41
-87
-79
-67
-45
-39
-47
-75
-15
65
51
33
35
31
-67
-85
-63
-41
-45
-35
-63
-31
65
53
45
33
31
37
79
-47
-89
-61
-43
-35
-25
-63
-65
47
47
19
21
67
-9
-93
-77
-59
-43
-31
-51
-73
43
59
51
27
27
17
-83
-81
-63
-41
-31
-41
61
37
23
23
35
33
39
-81
-91
-63
-49
-33
-39
-85
-25
51
35
23
21
27
35
47
-81
-97
-71
-47
-47
-35
-89
-55
49
39
25
21
19
21
55
-57
-103
-69
-55
-41
-37
-63
-59
31
45
41
19
18
17
53
-25
-99
-73
-63
-59
-43
-69
-81
19
43
31
19
21
17
-91
-85
-59
-47
-45
-59
-91
135
53
34
21
9
11
25
33
-91
-85
-61
-53
-52
-55
-75
-25
51
35
31
21
17
23
39
-85
-95
-69
-53
-51
-59
-91
-43
41
35
31
11
19
19
65
-71
-103
-73
-63
-57
-47
-73
-61
35
45
33
17
19
23
53
-41
-107
-73
-65
-51
-45
-63
-85
25
51
31
17
11
9
41
-14
-117
-91
-67
-63
-55
-69
-99
11
43
24
19
11
9
37
21
-107
-101
-63
-57
-55
-63
-83
-13
49
19
17
7
11
23
47
-95
-109
-68
-49
-59
-55
-87
-41
35
19
11
-1
-3
17
35
-87
-111
-89
-79
-65
-71
-85
-63
35
31
17
7
7
139
51
-63
-107
-79
-69
-53
-59
-77
-75
23
27
17
5
17
141
39
-87
-63
-63
-55
-67
-99
11
45
25
21
17
21
59
15
-65
-53
-55
-61
-93
-1
49
31
17
141
13
41
33
-79
-91
-53
-47
-95
-25
55
34
27
17
33
35
59
-64
-95
-61
-59
-59
-47
-75
-53
49
42
27
145
19
23
57
-45
-103
-72
-55
-47
-53
-69
-77
17
153
5
-13
-5
-13
5
-63
-165
-138
-126
-117
-129
-137
-165
-57
-37
-53
-59
-45
-45
-15
-29
-135
-119
-63
-49
-31
-37
-61
63
57
61
79
-49
-59
-31
-27
-29
-27
-59
-9
73
61
43
43
-51
-83
-49
-45
-45
-43
-63
-47
55
45
33
25
37
31
63
-47
-97
-61
-57
-47
-59
-77
-85
27
47
149
133
18
-17
-115
-83
-61
-55
-54
-55
-101
25
17
133
15
31
-9
-107
-97
-71
-57
-99
-15
27
29
19
9
17
11
-109
-68
-71
-73
-59
-91
-45
153
17
3
13
15
15
171
-87
-121
-79
-71
-61
27
3
7
27
-65
-73
-81
-97
-1
19
-1
-9
29
-29
-75
-74
-79
-93
25
-17
7
-94
-91
-123
-55
-14
-17
-13
-15
-87
-89
-91
-17
-25
-15
-1
35
-75
-123
-105
-81
-79
-71
-91
-103
-9
3
133
13
167
-29
-113
-87
-65
-59
-71
-64
-91
137
43
21
17
148
27
59
17
-89
-55
-52
-103
-7
53
27
29
39
53
-75
-47
-39
-23
65
27
39
35
195
-47
-93
-51
-43
-37
-52
45
63
27
41
201
-29
-91
-63
-47
-53
55
33
23
37
37
58
15
-91
-71
-33
-39
-45
-45
-71
7
51
39
29
25
27
58
37
-89
-43
-53
-53
47
161
19
23
37
161
61
-61
-41
-41
-47
-69
-45
35
27
55
-45
-99
-63
-45
-63
41
177
15
19
169
-15
-99
-73
-47
-47
-59
-61
-91
141
41
27
5
29
33
45
7
-94
-87
-47
-47
-59
-57
-100
-5
47
29
27
-79
-57
-57
-55
-89
-37
45
23
137
35
49
-75
-95
-64
-51
-61
-63
-87
-77
45
29
7
1
31
23
63
-47
-109
-67
-45
-47
-49
-71
-81
27
29
57
-1
-103
-79
-51
-53
-51
-63
-103
141
39
15
15
19
19
37
145
-49
-49
47
21
37
-89
-61
-59
-63
-99
21
-3
145
21
149
41
-57
-63
-64
-87
129
157
-75
-57
19
133
27
-71
-61
-69
161
11
-11
25
43
-76
-96
-67
-63
7
13
11
177
-43
-111
-63
-60
-73
-95
137
-1
9
147
173
-17
-117
-83
-57
-53
-51
-69
-93
-1
-3
145
33
-55
-59
-103
-29
171
35
11
157
155
27
51
-73
-88
-57
-45
-55
-61
43
35
-5
33
61
-63
-30
-53
-60
-73
-75
146
19
61
-41
-64
-113
-15
133
-17
-51
-25
-31
-15
-47
-165
-121
-131
-87
-65
-37
-17
15
145
-85
-89
-49
-25
-41
-25
-63
-9
209
69
43
51
63
-29
-65
-31
-13
-23
-33
161
43
47
201
-17
-41
-49
-45
-71
-89
27
47
23
7
27
25
59
-43
-49
-53
-73
-101
13
39
17
9
141
25
173
23
-103
-47
-57
-29
43
15
-3
9
19
27
-101
-69
-53
-61
-77
-103
17
-3
-9
13
17
171
-63
-113
-81
-59
-63
-85
18
-17
7
-39
-119
-86
-55
-87
-109
3
13
39
-5
-73
-71
-83
-6
-25
-13
133
23
21
-103
-121
-89
-69
-79
-89
-123
-71
137
-9
-26
-29
-15
-9
23
-107
-132
-93
-70
-99
-97
-118
-105
-1
-3
-37
-27
-23
-15
23
-75
-141
-97
-81
-89
-99
-123
-131
-5
13
-17
-35
-13
-11
35
-45
-137
-99
-64
-64
-77
-89
-121
-9
31
9
-17
15
21
41
-3
-103
-79
-53
-41
-67
-75
-105
-7
49
27
5
15
35
51
35
-77
-83
-37
-23
-43
-51
-86
-31
49
39
21
19
29
55
193
-53
-77
-29
-27
-39
-43
-73
-51
61
49
29
17
41
47
67
-43
-94
-59
-35
-37
-45
-61
-63
47
43
25
11
31
43
75
-9
-91
-59
-25
-25
-39
-59
-87
35
57
25
13
29
47
65
21
-79
-65
-33
-27
-39
-55
-79
17
51
23
135
27
47
61
41
-77
-73
-29
-27
-43
-53
-93
-15
55
35
19
19
45
43
55
-61
-83
-51
-19
-39
-37
-83
-41
50
41
17
3
41
33
57
-43
-101
-67
-31
-43
-57
-81
-68
39
35
15
5
35
35
69
-17
-99
-67
-37
-29
-55
-64
-79
35
41
15
3
151
31
63
13
-99
-74
-43
-30
-53
-69
-103
7
47
21
3
145
27
51
35
-87
-79
-45
-41
-55
-63
-99
-19
41
22
5
-5
27
39
51
-75
-95
-59
-43
-59
-67
-99
-59
43
23
129
33
-79
161
39
132
-15
-107
-79
-59
11
169
9
3
21
33
47
137
21
-9
-3
21
175
45
-75
-89
-51
-43
-101
-45
37
27
-3
3
17
-71
-97
-59
-45
-47
-67
-93
-64
171
39
3
-13
23
43
67
-39
-109
-73
-49
-37
-59
-79
-91
27
37
5
-3
19
34
57
-5
-97
-77
-57
-89
-119
7
35
11
-5
5
21
49
5
-105
-104
-63
-45
-64
-77
-115
15
6
-12
19
163
33
-89
-104
-63
-45
-62
-71
-107
-53
3
-9
55
-67
-101
-53
-71
-103
-87
27
19
137
33
193
-33
-43
-36
-61
-79
-91
149
39
15
-9
61
11
-65
-101
9
37
43
45
-117
-27
165
-5
181
-43
-53
-69
148
139
-23
-5
147
-89
-161
-139
-111
-103
-140
-65
-49
-69
-79
-41
-121
-89
-81
169
203
53
163
45
193
89
-33
-77
-3
-3
-97
-39
-62
-89
-89
25
-13
7
161
59
-13
-99
-77
-43
-37
-47
-79
-109
145
37
133
-19
55
7
-105
-89
-53
-43
-59
-85
-113
-25
33
3
-11
-13
5
161
33
-89
-49
-61
-89
-126
-53
25
5
-11
-15
51
-79
-107
-67
-57
-51
-77
-107
-77
13
17
-5
-21
-7
11
179
-57
-111
-81
-59
-57
-75
-99
-119
-1
11
-3
6
35
-37
-67
-63
-83
-103
-15
-35
9
-35
-5
25
-13
-127
-111
-79
-69
-83
-107
-153
-67
131
-15
-39
-43
-15
131
17
-115
-119
-94
-73
-73
-99
11
-5
-29
-39
-15
3
35
-83
-123
-101
-67
-64
-89
-115
-93
9
7
-7
-15
3
21
71
-39
-115
-75
-49
-47
-57
-75
-89
11
39
19
5
13
31
75
17
-91
-68
-35
-31
-45
-59
-85
21
53
35
13
13
51
73
-69
-29
-17
-99
-6
55
165
7
147
37
198
201
-63
-77
-31
-47
-77
-39
59
145
209
-45
-73
-45
-39
-77
-69
41
37
21
-13
-87
-57
-27
-17
-39
-55
-87
40
47
27
7
21
49
73
23
-79
-63
-25
-17
-41
-59
-95
11
51
31
133
11
161
61
49
-79
-73
-35
-61
-105
-19
47
29
17
-3
27
47
65
-67
-89
-51
-27
-33
-53
29
21
4
25
45
81
-53
-97
-69
-29
-35
-57
-93
-87
155
31
15
-1
19
35
-87
-59
-35
-28
-41
-75
-107
5
33
137
-14
11
41
-21
-47
-63
-107
-11
41
20
3
-5
159
51
51
-76
-31
-37
-67
-105
-37
39
23
133
-9
17
39
69
-67
-44
-47
-63
5
-1
145
39
-93
-64
-45
-27
-55
-87
-93
151
1
9
163
69
-79
-43
-41
-53
-79
-109
-3
35
23
-5
1
39
64
25
-91
-67
-37
-37
-43
-73
35
21
-7
-9
11
173
181
-76
-89
-55
-37
-49
-63
-113
149
-3
-3
135
29
64
-57
-101
-67
-35
-47
-61
19
13
-7
-17
65
-43
-55
-87
-11
-87
-43
-67
-107
51
-107
-37
169
-51
-95
-52
-57
-95
-75
-5
15
39
-89
-63
-31
-29
-43
-77
-91
23
36
9
7
-11
-103
-91
-60
-59
-147
-43
-15
-40
-49
-11
-47
-43
-159
-113
-107
-100
-135
-3
-7
-15
-5
21
67
-57
-23
-29
-73
-15
41
33
59
194
225
-19
-71
-35
-7
-11
-31
-75
-69
47
41
15
1
13
33
199
-9
-91
-67
-35
-94
9
33
-3
5
53
9
-97
-79
-39
-64
-111
-33
25
9
-17
-15
-1
-89
27
15
-13
-19
-13
9
49
-73
-107
-53
-43
-49
-67
-105
-85
-7
137
-111
-73
-47
-55
39
-17
-111
-85
-55
-45
-47
-83
-119
-25
11
-25
-33
-21
-13
27
9
-109
-104
-63
-47
-61
-77
-117
-41
17
-23
-29
-45
-23
-3
9
-111
-121
-77
-69
-69
-84
-139
-81
-5
-25
-27
-47
-29
-19
18
-100
-132
-88
-61
-63
-77
-119
-105
-15
-15
-41
-60
-37
-17
31
-79
-125
-91
-53
-57
-61
-104
-123
-15
-3
-17
-43
-23
-15
26
-35
-117
-89
-57
-83
-115
-11
22
130
-27
-17
-1
41
15
-87
-73
-39
-25
-19
-47
-93
-11
37
33
1
-5
17
41
-37
-15
-19
-33
-77
-37
41
37
1
9
31
33
81
-41
-71
-41
-14
-11
-33
-61
-57
39
41
8
5
21
35
75
-11
-75
-39
-21
-9
-19
-56
-75
29
37
11
3
17
33
79
21
-81
-53
-23
-13
-25
-41
-85
21
47
11
-5
7
19
55
37
-83
-57
-27
-17
-27
-45
-95
-9
45
11
19
36
61
-65
-69
-35
-25
-17
-27
39
21
17
2
7
27
67
-55
-77
-49
-21
-29
-45
-77
-65
29
21
7
9
59
-43
-93
-57
-27
-33
-43
-65
-89
27
31
7
-15
7
18
66
-11
-91
-59
-107
5
35
13
-9
3
11
49
17
-81
-75
-37
-31
-37
-47
-103
-25
41
25
-13
-11
131
41
45
-79
-79
-45
-27
-27
-47
-105
-47
35
25
-11
-9
137
-87
-75
21
17
-5
-15
-7
-29
-103
-77
-41
-29
-37
-73
-91
7
17
5
4
41
-3
-89
-77
-41
-29
-29
-49
-101
-13
-13
-9
5
33
23
-83
-79
-47
-45
31
47
-35
-51
-89
-75
31
11
-13
-13
3
15
-69
-37
-87
-101
-1
27
-5
131
45
-25
-93
-83
-39
-37
-55
-71
-115
-15
21
-5
-23
-7
-81
-49
-41
-43
-31
27
7
-21
-13
3
17
41
-75
-87
-43
-35
-27
-35
-89
-43
39
17
-9
-9
-9
11
59
-59
-85
-55
-27
-27
-47
-79
-75
146
33
5
-17
-3
17
61
-15
-85
-51
-45
-17
-37
-65
-83
13
27
7
-7
-1
11
63
11
-95
-73
-39
-25
-31
-53
-95
17
33
-1
-17
-13
5
51
25
-89
-81
-61
-39
-57
-77
-149
-67
-25
-57
-78
-81
-69
-49
-37
-143
-163
-113
-99
-107
-103
-147
-87
-5
-13
19
43
83
-17
9
143
3
-41
-39
167
43
-63
-31
-14
132
-9
-47
-73
19
39
147
27
55
-64
-35
-17
-41
-43
-93
130
-11
41
-83
-81
-53
-25
-39
-44
-101
136
-13
-5
-10
23
51
-71
-93
-63
-37
-39
-57
-94
-77
19
-25
-10
7
49
-52
-107
-65
-43
-39
-93
-3
-27
-7
-7
-103
-75
-47
-35
-39
-65
-107
1
-31
-17
-9
25
9
-99
-85
-125
-39
17
-11
-1
5
-100
-61
-115
-75
11
-14
-29
-17
-123
-109
-29
-51
-43
-31
-126
-101
-65
-63
-69
-99
-133
-20
-5
-29
-29
7
-30
-7
-105
-77
-57
-67
-79
-131
-33
133
-21
-15
15
25
-7
-13
-9
-71
-35
-75
-65
43
29
3
-9
5
25
71
-25
-87
-41
-13
-23
-21
-55
167
146
3
-3
27
199
131
-73
-43
-11
5
49
27
-3
21
35
55
167
-63
-61
-15
-9
-7
-27
-79
7
49
29
3
137
145
43
59
-13
-25
-27
-69
-23
39
35
133
3
27
29
192
-47
-77
-41
-13
-13
-29
-75
-61
37
35
129
-7
9
25
63
-31
-85
-45
-17
-57
41
11
3
5
19
199
3
-81
-64
-23
-45
-95
2
35
19
-7
5
17
165
29
-79
-71
-29
-13
43
23
135
-9
51
-45
-23
-29
-47
-73
-47
7
11
192
-47
-89
-61
-31
-31
-39
-65
-73
27
19
131
-9
133
19
-87
-55
-33
-17
-23
31
3
-9
47
25
-71
-69
-25
-19
-27
-41
-95
-17
25
1
9
29
43
-77
-77
-37
-25
-19
-37
-97
-35
31
7
-15
-27
-5
19
47
-67
-92
-41
-29
-26
-72
23
17
-3
11
65
-39
-81
-57
-28
-27
-31
-65
-79
23
31
-1
-25
1
11
49
-15
-93
-55
-35
-23
-35
-63
-83
131
-3
35
7
-89
-85
-57
-101
-9
-17
-21
-11
15
21
-85
-79
-51
-41
-41
-57
17
1
-15
-13
-5
19
47
-64
-94
-23
-43
-87
21
-95
-55
-29
-25
-21
-59
-88
149
43
17
-27
13
8
-71
-35
-23
-27
-45
-87
-1
35
37
43
-79
-77
-37
-21
-29
-31
-77
-27
33
11
9
-11
3
19
47
-69
-79
-55
-29
-29
-43
137
3
-23
-43
-33
-27
131
-105
-157
-121
-89
-103
-105
-147
-31
-59
-59
-84
-95
-73
-47
-3
-61
-115
-83
-35
-27
-19
-47
61
43
18
31
43
71
47
-53
139
11
-25
-71
27
49
133
17
163
47
-63
-33
-71
-19
37
25
-13
-19
4
11
57
-61
-83
-45
-25
-33
-33
-71
-60
-11
7
61
-41
-83
-57
-29
-25
-41
-71
-83
145
18
-11
-28
-13
-7
47
-69
-41
-29
-39
-61
-91
-1
13
-5
-26
-1
5
27
-1
-101
-89
-41
-31
-39
-65
-107
-29
149
-13
-19
-21
-7
19
27
-87
-89
-63
-41
-39
-57
-95
-49
19
-9
-21
-39
-19
131
19
-77
-97
-60
-37
-39
-49
-99
-77
7
7
-27
-51
-27
-15
25
-68
-115
-71
-53
-51
-55
-87
-112
-3
-3
-27
-45
-39
-29
19
-45
-125
-83
-61
-57
-61
-83
-125
-17
-5
-41
-37
133
-13
-121
-104
-59
-59
-125
-56
-55
-43
-29
-7
137
-107
-109
-55
-1
-25
-5
41
-69
-93
-59
-35
-27
-35
-71
-69
21
23
5
-7
7
27
-83
-51
-13
-9
-19
-51
-78
23
23
141
-7
11
17
61
131
-79
-53
-19
-13
-13
-33
-79
13
47
27
5
1
149
51
35
-71
-49
-13
-11
-13
-29
-83
-1
49
23
7
1
29
40
41
-63
-61
-24
-13
-11
-21
-75
-35
51
33
7
-15
13
31
57
-47
-77
-37
-21
-13
-23
-67
-61
161
27
138
-15
133
21
61
-23
-89
23
29
3
13
-81
-57
-25
-15
-15
-43
-77
5
31
3
3
35
29
-79
-65
-29
-7
-19
-41
-87
-23
39
13
-11
-15
-1
-9
-23
-37
-81
-55
37
-13
-5
11
51
-53
-89
-47
-25
-23
-27
-73
-77
21
145
130
-15
-7
135
41
-15
-91
-59
-31
-25
-31
-59
-93
11
33
-3
-21
-3
1
45
11
-99
-68
-25
-15
-21
-47
-85
-9
27
5
-17
-15
9
33
35
-81
-71
-37
-25
-31
-41
-91
5
-11
-15
-5
7
45
-79
-79
-47
-25
-13
-45
-83
-63
21
7
-7
-21
-9
11
53
-45
-83
-62
-35
-31
-41
-73
-77
13
19
3
-9
-11
11
47
-25
-101
-67
-35
-25
-33
7
18
-17
131
31
5
-87
-65
-33
-21
-33
-49
-99
-13
27
-1
-13
-31
-9
13
27
-83
-84
-51
-39
-31
-59
-105
-49
7
3
-27
-41
-11
-7
169
-65
-43
-71
-75
21
15
-17
-21
-5
-9
45
-59
-99
-57
-39
-29
-27
-63
-81
15
23
-7
-23
-1
3
45
-13
-93
-69
-30
-15
-17
-57
-89
3
29
-1
-17
-11
5
39
13
-89
-67
-31
-17
-31
-45
-83
-19
33
7
-11
-19
3
27
37
-73
-73
-27
-13
-23
-45
-93
-43
37
15
-3
-19
-3
17
43
-65
-95
-49
-33
-31
-37
-79
-71
11
5
-15
-45
-37
-19
19
-85
-137
-105
-83
-79
-97
-139
-156
-51
-61
-79
-92
-83
-69
-27
-75
-141
-94
-65
-37
-33
-43
-75
155
9
27
45
77
49
-55
-33
-9
15
11
-21
-63
21
59
35
19
5
53
-59
-60
-19
-11
-9
-15
-65
-19
51
37
3
-9
7
19
65
-59
-83
-41
-27
-25
-41
-71
-55
23
19
-11
-19
-7
1
47
-29
-93
-51
-27
-25
-29
-57
-77
139
-29
-3
-7
43
-19
-37
-27
-37
-60
-87
-3
27
-7
-17
-19
-11
153
7
-105
-87
-53
-31
-33
-57
-105
-21
31
-10
-15
-33
-29
-95
-39
-44
19
3
-21
-33
-31
-21
-43
-43
-89
-75
19
5
-17
-45
-35
-45
-115
-83
-55
-47
-49
-79
-111
-5
-47
-31
-29
15
-95
-63
-55
-5
-39
-43
-39
-31
-11
-5
-117
-109
-71
-51
-55
-83
-125
-75
-5
-39
-43
-27
131
-65
-101
-94
-1
-11
-31
-19
165
-63
-101
-51
-31
-17
-25
29
23
9
-25
-5
7
57
-9
-87
-42
-9
151
51
147
-5
147
19
181
35
-75
-47
-17
-7
-67
-3
57
9
19
171
59
-63
-65
-27
-7
-5
-29
65
27
3
3
11
25
59
-43
-79
-17
-25
-11
-13
179
-14
131
15
61
-11
-85
-45
-15
-5
-67
7
-7
-1
153
179
147
-13
-31
-75
133
35
-3
1
-3
13
163
166
-81
-71
-33
-7
-7
-27
-67
11
-9
15
177
-59
-81
-35
-21
-13
-29
-69
-59
33
17
-11
-23
-17
-43
-85
-37
-21
-13
-19
-59
-75
33
29
1
-11
-11
15
41
-17
-83
-59
-39
-21
-27
-39
-91
25
27
4
-17
35
15
-89
-77
-41
-23
-21
-35
-73
5
39
25
-19
-23
3
7
41
-77
-77
-40
-23
-27
-37
-79
19
-5
-21
-9
3
55
-69
-79
-39
-17
-21
-25
-71
-59
35
19
-13
-13
-5
5
53
-43
-85
-47
-17
-15
-23
-67
-75
21
23
-3
-17
3
7
41
-13
-103
-67
-43
-15
-23
-41
-91
19
35
-7
-17
-1
129
163
3
-93
-69
-27
-17
-28
-46
-95
-11
35
-7
-30
-25
-13
11
21
-93
-91
-41
-23
-25
-41
-91
-45
31
-1
-15
-25
-17
3
38
-71
-99
-47
-37
-23
-39
-79
-65
27
3
-11
3
41
-57
-105
-51
-33
-26
-31
-55
-85
21
27
130
-19
-19
-1
49
-21
-95
-59
-37
-21
-23
-52
-80
11
21
5
-21
-14
21
27
139
-83
-69
-29
-15
-15
-31
-73
-5
37
17
-17
-17
7
13
39
-87
-81
-41
-21
-19
-37
-77
-33
41
5
-15
-15
9
19
59
-63
-87
-49
-21
-23
-33
-77
-69
21
-9
-39
-53
-43
-39
-5
-95
-155
-129
-100
-75
-99
-139
-49
-79
-81
-67
-53
3
-39
-123
-71
-29
129
-1
-23
-67
37
147
-47
11
-11
-63
131
69
19
133
9
15
27
49
-69
-69
-17
-9
-13
-29
173
17
-7
-13
-5
19
42
-61
-89
-45
-30
-25
-25
-63
-61
39
17
-3
-23
-11
-1
45
-45
-110
-57
-37
-79
-9
-35
-21
-13
29
-13
-109
-69
-41
-35
-33
-55
15
-9
-29
-31
-19
-97
-81
-49
-31
-37
-55
-103
-45
31
-9
-25
-31
-21
-5
25
-87
-109
-49
-41
-35
-40
-93
-65
15
3
-5
-121
-63
-41
-37
-39
-77
-93
13
7
-25
-45
-27
-17
27
-41
-133
-92
-47
-67
-107
-27
-1
-41
-49
-51
-43
-5
-19
-123
-105
-71
-57
-61
-87
-125
-49
-11
-31
-49
-55
-41
-21
-9
-123
-137
-79
-59
-62
-79
-111
-83
3
-23
-40
-59
-43
-25
21
-99
-123
-73
-45
-47
-53
-87
-79
17
-3
-25
-39
-37
-15
35
-51
-107
-65
-29
-15
-29
-59
-75
163
31
-13
-21
-11
3
47
1
-81
-55
-17
-7
-15
-23
-73
21
50
15
-1
1
13
47
21
-75
-61
-21
-1
-11
-15
-77
17
59
27
130
-5
15
33
47
-69
-77
-15
-15
-9
-21
-73
-17
59
21
-3
-13
7
21
61
-41
-79
-27
-3
-1
-13
-55
-33
55
39
-9
-17
5
17
63
-27
-89
-43
-23
-3
-6
-41
-57
37
27
131
-13
3
17
57
-3
-79
-51
-13
-5
-15
-37
-75
35
43
19
-11
-3
19
55
23
-89
-67
-27
-7
-13
-25
-83
-7
35
11
-23
37
-79
-79
-41
-13
-21
-37
-79
-27
47
1
-13
-13
5
5
-93
-46
-23
-29
-33
-63
-55
35
147
-6
-19
-19
-49
-99
-65
-25
-23
-29
41
31
-11
-21
-9
133
45
-69
-23
-17
-31
-47
-97
15
41
7
-29
-17
-11
37
9
-81
-77
-33
-19
-21
-35
-85
-11
37
-1
-15
-19
-19
19
19
-87
-89
-39
-19
-27
-29
-73
-37
45
13
-14
-17
-3
-5
33
-73
-93
-53
-25
-27
-33
-77
-64
33
23
-27
-37
-13
3
29
-55
-37
-29
-25
-61
-87
25
9
-13
-29
-21
-7
27
-29
-109
-75
-43
-27
-25
-59
-91
13
25
-15
-29
-25
-11
19
-1
-108
-85
-45
-25
-31
-59
-97
-11
161
-7
-25
-23
-7
11
29
-89
-89
-47
-27
-19
-37
-87
-29
27
17
-5
-31
-13
3
45
-69
-101
-45
-21
-17
-35
-73
-55
43
29
-15
-27
1
-5
43
-53
-109
-69
-9
-13
-27
-49
-65
21
35
-3
-25
-15
-21
49
-15
-101
-65
-29
-7
-17
-53
-75
25
41
-5
-25
-13
-11
19
-5
-111
-95
-49
-31
-47
-69
-115
-47
-19
-57
-79
-91
-71
-61
-63
-173
-167
-119
-85
-89
-121
-137
-63
11
-25
-29
-21
-5
-49
-57
-21
137
19
3
-29
51
35
15
17
43
79
-28
-73
-35
-7
-59
49
51
15
-9
7
19
53
-7
-99
-60
-25
-15
-21
-41
-79
153
25
3
-29
-13
7
19
11
-95
-81
-39
-12
-11
-35
-84
3
35
3
-27
-31
-9
3
21
-95
-95
-37
-29
-30
-51
-95
-35
35
1
-19
-25
-15
7
41
-78
-95
-53
-31
-77
-59
35
17
-17
-27
-25
-57
-105
-63
-31
-23
-31
-81
19
-21
-41
-21
-17
21
-35
-115
-81
-37
-35
-39
-69
-105
-1
23
-21
-33
-35
-33
146
-13
-105
-105
-59
-43
-33
-59
-115
-37
19
-11
-33
-15
130
-99
-116
-67
-41
-45
-63
-101
-63
20
-17
-43
-57
-47
-27
-1
-103
-127
-92
-54
-59
-71
-93
-93
5
-13
-45
-37
-137
-95
-53
-87
141
-31
-93
-51
-27
-35
-63
-97
-7
35
3
-37
147
-79
-41
-17
-17
-31
-77
-17
55
19
-5
-13
-1
13
35
-33
-19
-7
-13
-53
-13
67
-30
-93
-63
173
43
11
-9
3
-29
11
-15
-39
-76
25
61
23
-5
134
-71
-14
-5
-15
20
133
-7
171
-75
-93
-31
-13
181
31
5
-9
131
139
-105
-59
-21
-55
-61
38
43
7
-15
-9
-1
47
-15
-101
-65
-24
-7
-9
-53
-81
35
43
-5
-13
-5
2
37
7
-93
-69
-29
-19
-15
-37
-75
1
43
11
-13
-13
2
146
31
-85
-77
-27
-11
-27
-35
-75
-21
56
19
-15
-21
-3
17
33
-73
-93
-45
-21
-27
-49
47
13
-7
-5
47
-61
-93
-62
-27
-46
27
-7
-29
-11
-5
49
-31
-103
-81
-17
-19
-25
-43
-81
163
36
3
-15
-7
-3
-37
-13
-83
139
43
141
-15
9
157
-87
-25
-15
-23
-7
-85
-99
-57
-31
-27
-33
-77
-61
31
29
-11
-27
-9
-121
-68
-35
-27
-83
-13
26
-87
-43
1
23
6
3
137
-103
-95
-59
-35
-91
-23
39
145
-13
-29
-23
53
35
-109
-61
-27
-58
-67
163
37
13
-15
-89
-67
-27
-17
-19
-35
-81
155
39
9
-8
-14
129
31
17
-33
-11
-91
-3
45
145
2
17
21
-107
-111
-63
-39
-75
-33
-153
-173
-125
-95
-9
-9
-23
1
-35
1
21
69
171
37
63
27
-79
-63
-13
7
5
-25
-69
25
63
25
11
-85
-77
-33
-11
-1
-23
-79
-21
53
18
-5
-15
-9
131
39
-83
-109
-53
-25
-15
-27
-71
-43
41
29
-15
-33
-9
-9
38
-63
-29
-13
-75
23
27
-12
-23
-15
-13
21
-47
-119
-83
-39
-29
-23
-47
-95
5
27
-3
-31
-21
-7
27
-9
-105
-95
-45
-25
-35
-67
-97
-13
35
3
-27
-27
-29
1
-5
-103
-109
-67
-41
-46
-55
-85
-47
33
3
-31
-45
-39
-19
11
-93
-43
-31
-49
-85
-85
-29
-59
-31
-23
23
-79
-145
-87
-61
-55
-99
129
3
-37
-113
-63
-41
-61
-85
-113
-23
135
-9
-17
-133
-113
-71
-53
-51
-71
-113
-44
145
-47
-29
-23
13
-99
-110
-74
-39
-33
177
147
135
155
-73
-111
-55
-15
-53
-55
171
39
3
-103
-57
-17
7
-19
-41
-67
45
64
23
-93
-61
-23
5
-53
13
197
167
13
17
161
-63
-67
-25
-11
71
43
145
-17
-7
19
51
-63
-89
-31
-9
-9
-9
-45
-45
65
43
133
-9
3
15
-17
-27
-63
39
167
17
-17
-3
-7
167
3
-97
-61
-17
1
-69
23
55
35
-11
-11
3
37
23
-104
-87
-35
-11
-9
-9
57
33
-7
19
43
-43
-25
-11
-21
-65
-29
53
31
-17
133
-99
-61
-17
-23
-23
-57
-61
41
167
9
-11
-17
2
171
-23
-99
-63
-31
-29
-75
31
53
13
-21
-15
-9
23
129
-95
-77
-37
1
-17
-51
-71
17
-17
-13
31
-93
-89
-55
-27
-13
-25
-65
-27
57
23
131
-21
-11
3
43
-67
-93
-61
-15
-21
-25
-61
-61
169
31
-5
-17
-17
129
43
-59
-25
-13
-17
-53
-79
41
41
-1
-31
-17
-11
31
-21
-109
-67
-23
-17
-7
-49
-84
23
39
15
5
-15
-9
27
17
-109
-89
-49
-15
-5
-35
-83
5
53
23
-17
-25
-9
7
25
-93
-93
-53
-17
-17
-27
-65
-23
39
21
-7
167
-59
-37
-27
-31
33
-21
-11
27
-59
-129
-15
-35
-61
-81
135
-37
-27
-7
161
-23
-49
-29
-31
-41
-92
-1
163
17
-17
-25
-21
15
-93
-46
-31
-78
-13
49
23
-5
-25
-7
5
-13
-5
-29
-79
-43
-23
-11
-61
-109
-15
-19
-51
-59
43
35
23
-23
-19
-13
27
-31
-99
-67
-37
-15
-21
-39
45
27
-13
-17
-1
21
-85
-53
-33
-27
-69
-47
-177
-129
-109
-105
-110
-147
-33
-39
-57
-21
-11
35
-35
-9
-25
-11
77
75
29
19
25
27
69
-15
-79
-41
-9
15
5
-31
-47
57
192
27
-5
2
21
49
-11
-101
-62
-27
-5
-9
-25
-63
23
53
17
-23
-15
-9
13
15
-107
-93
-47
-15
-15
-27
-11
35
-91
-105
-59
-33
-77
25
-11
-35
27
-86
-125
-73
-45
-31
-29
-78
-67
35
31
-3
-37
23
-53
-119
-93
-59
-31
-29
-57
-93
19
33
3
-37
-41
-17
7
-15
-115
-93
-59
-25
-33
-53
27
-1
-29
-27
-29
-9
-11
-121
-47
-29
-63
-95
-44
21
11
-33
-53
-55
-31
-1
-129
-137
-96
-59
-53
-67
141
5
-41
-61
-57
-37
5
-95
-143
-99
-69
-45
-63
-81
-103
-9
-1
-28
-69
-53
-43
-9
-65
-144
-119
-79
-57
-61
-77
-109
-11
11
-61
-33
1
-38
-131
-105
-65
-29
-31
-46
-99
131
31
3
-15
13
18
-103
-97
-47
-21
-25
-21
-79
-13
-11
135
47
-67
-87
-43
-19
131
-9
-49
-25
49
45
27
-7
129
-35
-79
5
55
25
11
59
-19
-21
-21
-64
43
63
35
129
21
-91
-63
-21
-9
133
-17
-55
5
3
133
-79
-89
-47
-15
-7
-7
-59
-27
25
15
59
-59
-97
-55
-25
-11
-27
47
45
145
41
-21
-109
-69
-37
-11
-13
-39
-79
37
51
25
-13
131
-3
-95
-69
-41
-29
3
-29
-71
29
1
7
25
-87
-91
-17
-21
-73
-15
3
-56
-95
-59
-21
-13
-13
-61
-51
47
169
5
-15
-11
5
43
-53
-115
-59
-31
-19
-15
39
21
-21
-107
-73
-39
-25
-15
-27
-81
11
49
19
-13
-21
-7
147
-23
-15
-25
-81
-15
51
-15
11
37
-85
-107
-47
-29
-24
-15
-63
-43
47
33
-5
-25
169
-63
-45
-25
-7
-9
-115
47
-15
13
-9
-25
-75
-5
37
163
9
-25
-9
-3
43
-83
-94
-61
-43
-33
-35
-71
31
-11
-35
-9
-81
-119
-39
-29
-79
-63
35
25
-7
-27
-19
-15
23
-57
-113
-83
-51
-47
43
11
-11
-13
5
23
3
-101
-21
-21
-29
-83
20
-11
9
-97
-57
-21
-17
-28
-71
-25
59
39
3
-27
-3
10
45
-33
-13
-29
-57
-41
45
35
-1
1
169
-46
-111
-63
-36
-27
-15
-41
-65
19
-9
-21
-7
159
-83
-58
-47
-27
-53
-111
-13
-51
-49
-57
-167
-28
-125
-95
-101
-105
-147
-69
-1
-15
-37
-37
-23
-5
33
-73
-69
-21
7
21
133
-27
135
89
195
55
159
151
35
81
-33
-67
-37
131
19
7
-29
-31
21
-61
-23
-7
-15
-29
-65
43
43
21
-11
-5
-7
-99
-31
-83
-1
55
17
153
13
-107
-94
-59
-27
-27
-23
53
27
11
-19
-19
1
23
-93
-111
-57
-25
-75
-57
-13
-29
-29
-13
21
-67
-108
-81
-53
-45
-43
-59
-79
23
35
3
-30
-19
-29
25
-39
-125
-95
-47
-38
-33
-61
-87
3
-25
-27
-27
7
-21
-119
-103
-73
-59
-43
-1
-25
-46
-31
-21
-13
-131
-127
-85
-51
-53
-61
-107
-59
153
-11
-27
-57
-140
-85
-63
19
-41
-46
-44
-5
-105
-77
-64
-49
135
-37
-37
-28
-7
-37
-123
-107
-57
-47
-43
-3
43
-109
-95
-53
-21
145
-91
-55
-37
195
49
151
-5
3
137
-53
-13
-7
-7
-41
-47
63
193
25
-17
63
-33
137
43
-51
-11
-51
-33
129
137
53
-49
-33
-25
-15
-41
-63
51
5
3
-95
-63
-41
-5
-5
-23
-71
27
57
29
-1
-7
1
25
15
-93
-91
-47
-23
-21
-29
-69
19
59
165
147
-5
-1
15
-91
-51
-21
-25
-11
-59
-21
59
-3
-5
-5
43
-64
-107
-59
-37
-31
-21
-59
-58
177
39
15
-13
-8
3
49
-33
-97
-75
-35
-27
-31
-41
-75
36
177
1
-7
152
-80
-42
-31
-76
15
39
27
-1
-13
21
-91
-91
-53
-29
-71
-15
55
163
135
-15
31
-83
-97
-60
-21
-21
-33
-57
-46
55
49
13
-23
-117
-69
-27
-49
-65
39
181
141
-109
-81
-49
-27
-27
17
169
19
131
-7
-113
-95
-59
-31
-75
153
-9
-17
-17
-5
31
-95
-99
-63
19
-19
-14
163
-81
-45
-31
-27
-49
-67
27
45
15
-15
-8
-7
33
-31
-121
-85
-35
-29
-35
-45
-81
161
41
15
-13
3
-9
23
-17
-103
-79
-45
-29
-21
-33
-71
131
135
-5
3
23
27
-89
-93
-39
-17
-17
-7
-69
-19
59
49
-3
-21
-1
3
39
-59
-95
-49
-25
-31
-27
-69
-53
37
33
3
-17
-11
-21
-137
-109
-79
-73
-79
-117
-145
-21
-36
-53
-79
-85
-77
-43
-99
-175
-141
-99
-65
-55
-69
-89
157
67
25
23
27
153
56
41
-65
-63
-11
3
9
3
-37
27
75
193
45
23
23
23
51
-35
-15
-13
-23
-63
-29
65
53
15
-5
3
-1
53
-63
-110
-45
-39
-31
-23
-54
-57
57
47
15
3
-11
-11
25
-57
-97
-69
-41
-21
-13
-43
-79
51
47
15
-3
-11
-3
25
-29
-115
-85
-49
-33
-31
-39
-89
11
37
11
-15
-15
-11
5
-11
-111
-93
-61
-33
-39
-40
-87
-15
177
21
-3
-25
-13
-11
15
-67
-29
-39
-47
-81
-40
47
143
-21
-21
-21
-19
21
-53
-51
-67
27
-11
-19
-21
-27
-60
-43
-53
-65
-107
131
-111
-63
-69
-110
-7
-31
-53
-135
-131
-89
-63
-71
-65
-109
-57
152
-5
-31
-1
-87
-71
-57
-55
-95
-65
27
19
-11
-71
-123
-81
11
-13
-11
131
29
-19
-107
-23
-17
-21
67
49
11
9
-91
-81
-19
-19
-61
5
147
-5
3
21
47
-69
-87
-45
-19
-12
-19
-45
-29
195
51
25
5
47
-59
-106
-53
-21
-25
-5
-31
-61
55
51
23
5
133
-1
39
-29
-107
-67
-45
-25
-20
-39
-69
131
137
-93
-13
-17
-35
-77
135
67
23
-5
-1
3
11
31
-99
-93
-51
-35
-31
-31
-65
-23
185
157
-1
-13
-105
-19
-31
-57
53
23
-9
137
-121
-91
-47
-55
-83
21
-7
3
5
37
-19
-123
-25
-41
-49
49
29
-15
-17
-17
5
-5
-79
-61
-57
-57
-115
-49
17
133
-13
-31
-23
-83
-49
-47
-61
-97
-65
35
19
-9
-87
-128
-97
-57
-60
-69
-93
-99
9
17
-23
-23
-9
-13
29
-43
-115
-85
-57
-31
-25
-63
-95
19
47
137
-5
-5
-3
19
-19
-136
-111
-57
-41
-43
-55
-95
-3
41
5
-5
-13
-13
3
-5
-111
-123
-71
-61
-47
-54
-101
-39
37
23
-9
-19
-7
-3
23
-101
-126
-69
-57
-91
-73
37
151
-19
-14
-23
-15
9
-95
-143
-100
-85
-102
-5
-11
-27
-53
-45
-47
-11
-67
-159
-85
-91
-105
-149
-35
-11
-57
-75
-75
-65
-28
-109
-132
-181
-89
-41
-63
-99
-99
-95
-207
-203
-177
-162
-141
-149
-187
-119
-71
-76
-103
-131
-107
-101
-63
-140
-145
-175
-169
-75
-83
-105
-127
-115
-101
-63
-155
-79
-173
-181
-77
-75
-95
-119
-103
-111
-67
-123
-143
-139
-135
-83
-111
-140
-143
-121
-20
-225
-217
-209
-195
-197
-207
-217
-55
-137
-140
-167
-153
-144
-121
-97
-192
-195
-157
-124
-115
-107
-145
-103
-11
-25
-59
-63
-71
-69
-33
-137
-185
-145
-113
-117
-111
-155
-147
-41
-51
-80
-99
-89
-93
-69
-147
-205
-147
-147
-172
-64
-77
-73
-117
-133
-125
-129
-99
-159
-221
-209
-185
-183
-169
-187
-215
-135
-156
-158
-155
-141
-152
-223
-221
-203
-191
-195
-191
-215
-177
-105
-163
-163
-167
-127
-221
-95
-203
-197
-189
-184
-209
-187
-145
-137
-141
-141
-105
-201
-217
-205
-195
-182
-189
-205
-209
-117
-119
-149
-167
-157
-213
-203
-217
-141
-117
-149
-169
-123
-41
-185
-191
-209
-137
-99
-120
-137
-147
-139
-129
-125
-219
-221
-77
-189
-88
-175
-103
-129
-133
-163
-31
-211
-92
-203
-179
-171
-179
-83
-194
-103
-141
-139
-219
-193
-165
-151
-55
-95
-63
-113
-117
-113
-143
-41
-15
-37
-43
-37
-39
-15
-21
-135
-119
-73
-53
-35
-35
-73
33
49
201
-47
-78
-5
15
23
15
-25
228
81
-38
131
47
23
85
99
91
131
71
193
43
19
111
114
137
115
15
11
53
192
81
59
149
111
159
135
112
99
101
117
-11
35
61
23
89
163
125
107
219
107
111
143
17
-15
47
181
145
133
115
99
93
93
123
45
63
51
99
104
67
-45
-15
133
161
5
7
-55
43
95
51
29
37
155
43
27
-103
-95
-59
-59
133
-1
-15
-21
-9
9
-121
-63
-65
-75
-101
-73
25
2
-19
-29
-31
-19
13
-95
-139
