434
434
430
428
420
422
420
416
422
418
424
429
438
440
438
446
432
436
424
416
410
598
766
974
1023
1023
1023
1023
1023
1023
1023
1023
1023
1023
1023
1023
1023
1023
1023
1023
1023
1023
1023
1023
1023
1023
1023
1023
1023
1023
1023
1023
1023
1023
1023
1023
1023
1023
1023
1023
1023
1023
1023
1023
1023
1023
1023
1023
1023
1023
1023
1023
1023
1023
1023
1023
1023
1023
1023
1023
1023
1023
1023
1023
1023
1023
1023
1023
1023
1023
1023
1023
1023
1023
1023
1023
1023
1023
1023
1023
1023
1023
1023
1023
1023
1023
1023
1023
1023
1023
1023
1023
1023
1023
1023
1023
1023
1023
1023
1023
1023
1023
1023
1023
1023
1023
1023
1023
1023
1023
1023
1023
1023
1023
1023
1023
1023
1023
1023
1023
1023
1023
1023
1023
1023
1023
1023
1023
1023
1023
1023
1023
1023
1023
1023
1023
1023
1023
1023
1023
1023
1023
1023
1023
1023
1023
1023
1023
1023
1023
1023
1023
1023
1023
1023
1023
1023
1023
1023
832
542
232
46
22
16
12
10
8
8
8
8
6
6
6
6
6
6
6
6
6
4
6
4
4
4
4
4
4
4
4
4
4
4
4
4
4
4
4
4
4
4
4
4
4
4
4
4
4
4
4
4
4
4
4
4
4
4
4
4
4
4
4
4
4
4
4
4
4
4
4
4
2
4
4
4
4
4
4
4
4
4
4
4
3
4
4
4
4
4
4
3
4
4
4
4
2
3
4
4
4
4
4
2
4
4
4
4
4
4
4
4
4
4
4
4
4
3
4
4
4
4
4
4
4
4
4
4
4
4
4
4
3
4
2
4
4
4
4
4
4
4
4
4
4
4
4
3
4
4
4
4
4
4
4
4
2
2
4
4
4
4
4
4
3
4
2
2
4
4
4
4
4
4
4
4
4
4
4
3
3
4
4
4
4
3
4
4
2
4
2
4
4
4
3
4
4
4
2
4
4
2
4
4
4
4
3
4
4
4
4
4
3
4
4
4
4
4
4
4
4
4
4
4
4
4
4
4
3
2
4
3
2
4
4
3
4
3
4
2
4
4
4
4
4
4
4
3
4
3
3
3
3
4
4
4
4
3
4
4
3
4
4
4
4
4
4
4
2
4
4
4
3
2
4
3
3
2
4
4
4
4
4
2
2
4
2
4
4
4
4
3
4
4
4
4
2
4
4
4
4
3
4
4
4
2
4
4
3
2
4
4
4
3
4
4
4
4
4
4
4
4
3
2
2
4
2
3
4
4
4
4
2
4
3
4
4
4
2
3
3
2
2
4
4
4
4
4
4
3
4
4
3
4
4
3
2
4
4
4
2
4
4
2
4
4
4
4
4
4
4
2
3
4
4
2
4
4
4
2
3
2
2
4
4
4
4
2
4
4
4
3
4
4
4
4
4
3
4
4
4
4
2
2
4
3
4
4
4
4
4
4
4
2
4
4
4
3
4
4
4
4
4
4
4
4
4
4
3
4
4
4
3
4
3
4
3
2
4
4
4
4
3
4
4
3
3
2
4
4
4
4
4
2
2
4
4
4
3
4
4
4
4
4
4
2
4
3
2
4
4
4
4
2
3
4
4
4
4
3
2
2
2
4
3
4
4
4
4
2
4
2
3
3
4
4
4
4
4
4
3
4
4
4
2
4
4
4
4
4
4
4
4
2
4
4
4
4
2
4
2
4
2
4
4
4
6
6
4
4
4
4
3
2
2
4
4
4
4
6
8
14
14
14
14
7
4
4
4
4
4
4
4
4
4
6
8
12
16
10
10
6
4
4
3
3
2
4
4
2
4
6
8
12
14
16
14
8
4
4
4
4
3
4
4
6
10
16
20
28
32
34
34
30
24
20
18
14
8
8
10
10
12
16
18
22
24
26
22
20
10
6
4
4
4
4
2
4
6
10
14
18
17
18
12
8
4
4
4
3
4
4
4
4
8
10
12
18
20
20
18
14
6
4
4
4
4
4
4
8
10
16
20
26
30
30
28
24
20
16
14
10
10
9
10
16
20
22
24
26
24
16
8
4
4
4
4
4
4
2
3
4
4
8
12
12
16
14
6
6
4
4
4
3
3
4
4
3
3
4
2
4
2
4
4
4
2
4
4
3
4
4
4
2
4
4
3
4
4
4
4
4
2
4
2
4
7
10
18
28
40
50
66
78
80
92
96
92
96
102
106
104
114
122
132
148
156
166
184
190
196
200
202
202
194
194
200
204
206
216
222
234
244
254
262
274
278
278
284
282
284
286
290
294
298
300
308
320
330
338
348
350
356
354
360
354
340
348
340
342
342
348
344
354
354
362
366
364
366
358
360
350
350
350
340
344
340
338
340
348
350
352
358
362
360
364
356
350
336
342
334
330
328
336
330
334
342
338
346
340
342
332
326
316
306
298
294
282
284
284
282
278
282
278
280
274
274
256
254
246
236
232
222
210
214
206
212
214
218
218
218
214
212
208
196
188
186
176
174
172
168
166
166
170
176
166
176
172
170
164
152
140
132
126
126
124
128
120
130
136
140
148
144
146
142
140
134
130
130
132
130
132
140
146
152
162
166
174
185
186
186
190
187
184
190
182
182
188
192
194
206
220
224
230
232
236
236
236
236
230
228
238
234
238
248
250
262
268
278
278
284
284
290
282
286
278
276
284
278
276
286
286
294
304
302
314
314
314
306
304
304
302
294
296
290
298
298
300
304
318
318
318
318
318
314
316
304
296
292
292
290
294
296
292
300
302
304
310
308
316
302
302
292
278
286
270
278
270
274
276
282
288
296
292
290
286
282
274
266
266
256
252
248
248
252
250
252
254
260
256
252
246
238
226
222
216
200
204
202
203
200
206
204
218
226
228
230
226
220
220
214
202
212
206
214
218
216
226
230
242
252
254
262
264
262
254
252
254
258
246
252
268
268
272
284
286
296
302
302
302
300
298
298
286
294
294
296
300
306
316
320
332
334
340
342
342
340
334
338
324
324
330
319
326
328
332
328
346
342
340
346
332
332
324
314
316
306
302
302
306
300
306
314
314
320
322
314
310
308
302
302
302
304
302
306
312
318
324
330
340
346
354
350
350
356
356
356
358
358
366
372
384
386
402
414
424
430
434
442
448
442
444
442
450
448
452
458
462
468
470
478
472
476
466
464
447
442
434
426
430
428
432
424
432
440
450
464
462
464
472
464
468
472
468
466
468
478
482
480
498
508
530
534
540
554
556
564
570
568
566
572
570
582
584
594
600
610
622
636
640
654
652
656
654
652
650
652
654
654
656
668
672
678
686
694
706
710
708
706
714
712
706
710
712
706
710
706
712
712
714
722
714
714
710
704
694
684
676
658
652
642
636
628
622
624
622
616
616
608
598
588
576
572
560
556
546
534
534
526
524
520
524
516
502
492
484
470
454
442
430
424
414
410
404
406
412
412
418
416
418
412
410
396
392
370
362
362
358
352
338
346
348
342
356
352
356
352
358
350
342
338
328
332
334
330
332
342
346
350
360
364
366
362
370
356
352
356
342
348
344
348
348
348
358
364
374
370
376
376
374
368
362
358
354
352
356
348
358
352
358
365
365
366
370
366
364
362
358
358
354
348
356
356
358
372
376
382
394
396
398
400
400
398
398
396
398
396
396
392
400
408
410
420
418
424
422
422
424
418
412
404
406
404
408
402
412
414
420
422
426
428
422
420
414
410
402
398
386
390
380
384
382
380
384
388
394
394
390
386
376
363
358
356
344
342
332
334
334
330
330
332
336
330
330
318
306
298
288
280
274
270
272
256
266
266
272
270
272
272
268
260
252
242
236
234
228
226
218
224
218
224
226
222
228
228
220
214
208
204
202
202
196
190
192
189
202
205
208
216
220
222
216
216
208
204
196
200
190
188
194
192
192
198
206
204
214
212
208
208
208
200
190
186
188
182
188
186
186
194
198
202
200
202
198
190
194
184
174
178
166
166
176
176
178
186
186
196
192
198
198
194
194
176
178
180
178
180
180
186
190
199
206
206
210
208
204
204
198
196
190
186
192
190
198
202
208
218
218
228
232
226
234
232
224
222
224
218
214
224
226
238
246
258
254
268
278
282
274
270
268
268
272
266
266
266
280
286
294
302
308
322
324
328
322
326
320
328
320
328
324
334
340
352
352
352
370
368
370
376
378
362
368
360
350
356
360
360
368
374
376
378
394
396
400
392
396
394
394
392
384
388
392
388
398
398
418
426
432
436
436
442
432
434
426
426
428
422
422
420
430
432
438
448
444
446
446
440
444
428
422
420
414
412
411
420
418
424
424
436
440
444
442
434
430
434
416
414
418
412
418
426
426
432
436
440
444
447
450
432
436
424
420
414
410
412
398
406
408
408
420
414
420
416
420
406
402
396
394
380
376
374
376
378
382
382
386
388
394
396
392
386
390
384
370
374
366
365
374
376
376
388
396
400
402
408
406
404
400
397
396
390
388
388
390
388
394
402
406
412
410
418
410
404
400
394
386
380
384
378
380
374
380
380
382
386
382
384
376
358
354
342
330
328
318
306
302
302
292
298
292
294
284
286
276
266
248
242
240
226
224
214
214
218
216
218
222
222
216
216
214
204
200
188
188
186
186
188
184
184
191
194
204
206
200
204
200
204
202
200
196
198
202
198
206
212
222
234
236
240
248
236
238
226
224
226
224
218
212
220
222
220
226
224
237
244
240
238
236
230
224
220
218
216
218
218
224
228
222
228
242
244
248
244
246
236
232
230
228
230
232
234
240
250
262
264
274
284
290
288
286
282
292
282
282
285
288
296
292
302
312
322
326
330
336
334
330
328
320
326
320
322
324
330
332
343
350
358
366
368
370
364
358
362
352
350
346
350
346
350
358
360
366
368
370
372
364
368
368
362
362
350
356
354
358
354
362
370
376
382
384
390
380
386
380
366
364
366
364
360
360
364
368
372
374
380
388
392
380
378
380
370
364
362
356
350
356
354
354
352
356
366
364
362
362
356
348
338
332
334
328
324
330
330
340
342
350
354
352
360
352
348
350
342
338
334
336
330
336
342
344
350
356
358
360
362
360
348
340
340
330
330
326
320
318
319
318
330
322
324
320
316
314
308
292
290
282
274
268
262
264
270
264
268
276
284
278
282
282
276
266
266
260
254
264
268
266
268
280
296
298
306
308
306
310
306
304
304
304
300
306
302
316
320
326
328
338
346
350
349
348
348
340
340
330
332
336
332
334
344
344
344
352
352
350
350
344
334
332
332
330
326
326
330
328
332
342
344
350
356
350
350
336
326
318
294
284
266
248
240
236
232
228
220
216
210
210
200
192
190
174
172
166
168
160
166
170
174
178
184
187
188
190
194
190
186
182
180
180
182
182
180
190
194
198
206
216
218
214
222
214
214
206
208
206
212
214
214
220
224
232
242
248
244
244
250
246
242
232
230
230
232
238
240
246
252
254
252
264
264
264
258
258
258
250
254
250
256
252
256
268
272
282
286
294
296
298
290
300
292
292
298
296
302
298
314
322
328
332
348
350
352
356
358
358
356
358
360
360
362
366
378
384
396
406
412
420
422
424
420
418
418
414
414
414
414
420
422
430
428
436
446
452
448
445
446
438
438
436
428
428
430
438
444
444
450
460
456
466
464
464
462
452
458
452
446
446
452
446
456
458
460
470
472
464
464
460
458
452
442
438
426
428
424
426
436
434
436
446
444
447
444
440
428
426
424
422
408
412
406
410
420
424
422
434
438
436
436
444
438
430
422
420
422
424
422
426
432
443
446
448
454
458
462
454
456
454
446
444
442
436
428
424
410
400
392
376
352
336
322
296
276
256
246
230
212
196
186
180
170
164
156
156
146
138
132
118
108
104
106
96
94
104
114
120
128
148
158
164
176
176
191
196
194
204
204
210
220
228
232
250
268
274
300
316
322
334
336
334
346
348
348
360
360
376
376
384
398
411
420
436
438
442
442
447
446
444
446
444
448
446
454
462
468
472
484
488
496
494
490
492
488
486
482
484
482
488
482
492
500
512
512
520
520
520
520
509
508
506
500
496
498
498
504
502
508
516
520
528
524
524
516
506
508
498
494
494
494
500
492
498
508
506
516
516
514
514
504
500
492
484
482
482
478
474
478
482
482
488
494
494
494
488
474
472
464
456
448
452
446
446
452
450
450
456
456
452
454
442
444
438
428
426
416
414
408
414
414
418
414
426
420
422
416
420
404
402
396
396
392
386
386
396
394
396
408
412
418
412
414
416
400
398
394
390
390
390
386
392
394
400
400
400
406
406
396
406
398
384
380
372
372
370
374
376
376
384
386
394
396
392
386
390
381
376
374
364
366
362
372
370
374
382
386
386
392
390
394
392
386
380
370
376
370
374
370
374
374
386
390
392
392
390
390
378
376
360
356
350
352
348
344
348
350
346
358
356
350
356
342
342
335
320
319
310
312
302
310
310
310
314
318
316
322
316
308
300
296
304
292
288
286
284
294
292
301
314
318
318
318
320
324
310
310
298
296
296
286
288
286
286
280
272
274
267
262
252
240
226
210
190
176
166
148
146
132
128
118
108
110
112
102
96
76
66
52
43
36
24
18
10
8
6
8
10
16
16
16
14
8
6
4
4
4
4
4
4
6
12
24
32
42
49
56
63
62
68
66
68
78
90
104
112
126
148
162
176
192
208
218
224
226
230
248
240
254
264
274
288
310
316
336
348
366
374
388
382
396
402
404
402
416
424
430
442
454
468
477
488
500
504
510
518
514
520
516
522
526
526
534
542
554
556
564
578
582
586
584
586
575
576
576
576
574
578
576
576
589
596
600
608
614
622
618
612
608
606
598
602
598
604
606
600
610
618
620
628
630
624
622
622
620
612
606
604
604
600
600
606
616
622
622
634
634
636
636
628
628
616
610
610
612
606
612
610
620
622
628
628
638
634
630
624
620
614
606
612
608
612
612
605
616
622
616
624
618
626
612
608
604
592
586
588
578
580
580
580
580
584
588
590
586
576
576
570
556
554
542
536
540
526
534
528
538
538
538
528
524
518
510
502
486
472
468
458
454
447
444
446
446
444
446
445
436
430
420
406
398
386
374
368
366
362
354
358
352
354
350
352
350
344
330
318
308
306
288
284
280
272
280
268
276
278
268
264
260
258
250
234
218
212
202
202
192
192
192
190
186
188
186
180
174
164
158
150
136
134
128
118
118
120
116
128
130
128
142
136
142
134
134
128
120
114
118
114
116
120
128
130
138
146
150
154
156
156
144
147
144
140
142
148
148
156
160
164
162
174
180
176
176
176
164
168
162
156
154
156
158
158
168
164
176
184
186
188
188
182
174
170
170
164
166
164
172
174
172
188
184
188
188
188
192
178
180
170
166
162
162
158
160
168
166
174
184
188
192
191
190
190
