202
70
78
76
76
80
79
82
80
80
80
84
81
82
82
80
81
84
79
83
82
84
208
83
84
86
84
88
90
92
225
104
102
234
109
108
111
112
244
120
122
124
414
406
388
362
330
418
254
219
141
132
124
130
136
150
166
182
197
212
228
236
240
248
252
388
394
303
312
320
330
336
344
344
348
348
348
348
346
342
334
336
332
333
326
326
328
326
324
324
328
326
328
326
330
328
330
328
330
328
324
320
320
320
318
444
314
314
314
310
312
306
308
304
298
298
296
291
291
289
286
286
284
408
278
276
274
272
270
394
266
392
262
260
258
384
252
250
250
246
244
242
240
232
228
220
218
218
216
212
211
210
202
198
196
192
192
188
186
187
180
180
180
176
174
172
168
168
164
162
162
156
156
156
154
150
146
144
142
142
140
138
136
134
134
132
132
131
128
129
128
125
124
124
124
119
117
116
116
116
114
113
113
112
109
112
110
107
108
105
104
104
102
102
104
98
100
104
226
95
94
98
94
92
89
91
92
90
88
92
88
216
216
86
216
214
216
84
86
84
84
88
87
84
86
81
84
84
86
216
212
86
87
90
86
89
86
216
88
216
88
86
87
214
88
84
214
82
86
214
84
82
87
84
86
83
84
82
81
82
82
84
82
212
82
210
81
76
80
78
77
79
80
80
204
76
74
204
77
73
74
202
69
72
70
68
196
69
70
68
68
192
68
63
66
192
68
63
194
58
60
184
58
58
55
56
179
180
180
48
45
174
45
44
46
44
44
43
40
172
168
42
41
41
42
42
170
170
167
38
37
164
36
38
166
36
164
38
164
162
33
162
160
160
156
31
32
30
29
32
27
28
28
29
156
30
27
154
26
26
28
26
24
28
26
30
26
28
24
154
24
22
26
23
22
26
22
24
149
24
22
152
20
150
20
20
20
21
19
20
20
150
22
22
148
20
22
21
20
20
20
146
20
19
18
148
18
20
20
20
18
20
18
18
146
22
148
20
22
22
21
20
148
22
23
20
22
24
22
24
22
22
21
24
152
26
21
22
20
20
22
18
22
22
17
24
22
21
152
26
24
25
24
24
22
26
25
26
28
31
33
29
34
34
34
36
40
38
39
44
44
40
43
52
54
56
61
66
68
69
74
78
82
85
88
91
98
108
111
117
122
126
136
138
146
156
156
162
181
188
192
202
224
232
238
246
252
260
392
272
280
284
292
424
300
310
316
318
334
340
346
350
350
356
360
364
366
370
376
374
378
380
382
386
390
394
392
396
396
396
398
400
402
404
402
404
404
404
406
408
404
406
404
406
404
406
404
404
400
400
400
402
402
398
398
396
398
396
392
390
390
388
386
386
384
382
380
376
372
372
370
368
496
360
360
360
358
358
354
348
350
344
342
342
336
336
332
460
332
326
324
452
322
314
316
314
310
435
300
428
422
296
284
286
282
280
278
274
272
270
268
266
264
266
254
258
256
256
251
248
248
246
242
240
236
234
230
228
227
224
226
222
221
216
217
214
208
208
207
204
202
196
194
191
188
190
186
186
182
184
177
176
172
174
172
170
168
169
166
164
164
160
161
158
154
156
150
149
146
146
145
142
145
145
144
144
142
140
140
142
138
134
136
133
132
132
130
132
125
128
126
125
131
128
125
124
124
122
123
124
123
128
124
122
124
128
124
124
121
122
124
120
120
122
122
120
248
120
120
245
118
114
240
113
114
242
114
242
110
110
110
108
108
235
232
106
106
234
234
232
105
102
232
103
101
102
101
100
225
92
94
94
93
94
94
95
92
97
94
94
86
92
88
89
88
87
88
87
212
86
88
84
86
86
86
85
86
84
85
83
88
83
84
84
79
80
81
82
82
80
80
78
80
80
78
78
79
78
202
74
76
202
204
74
202
73
72
70
70
198
68
68
63
64
64
62
62
192
61
59
60
60
59
59
56
56
58
60
56
57
54
56
58
56
52
56
55
52
56
54
52
52
50
178
50
48
50
47
46
44
46
172
44
48
42
172
42
46
44
44
43
44
39
42
40
44
42
41
44
41
42
42
168
42
39
41
40
42
42
42
41
38
40
40
36
36
34
36
38
38
36
38
34
34
40
36
35
36
34
34
38
36
38
38
38
36
38
34
163
36
38
36
36
36
36
38
32
161
161
31
34
158
36
34
32
28
160
28
32
160
32
32
32
34
161
160
33
34
34
164
37
33
36
36
38
42
40
44
44
44
176
48
48
184
60
64
192
68
70
84
86
92
98
100
236
112
120
126
146
152
160
166
176
214
220
245
252
392
462
340
374
384
404
406
411
416
432
438
444
448
462
468
470
474
480
482
486
490
502
506
504
508
640
650
662
664
540
668
668
670
678
682
682
682
688
690
692
692
564
568
568
568
568
568
692
566
564
564
690
562
692
566
564
564
558
686
554
674
676
674
548
538
538
536
530
532
528
526
526
650
522
518
642
508
508
504
490
492
490
480
478
476
472
470
468
464
462
462
460
456
450
452
448
448
446
444
442
440
438
436
432
430
428
430
426
424
420
418
418
414
412
412
414
410
408
408
404
402
400
402
398
400
394
396
396
396
394
396
400
394
396
392
396
394
392
392
396
396
400
398
402
400
402
402
402
400
402
402
408
404
406
406
406
408
410
410
408
412
414
416
412
414
414
412
414
414
418
414
416
414
412
412
414
416
416
413
414
414
416
416
414
416
416
418
414
418
418
414
414
412
416
410
412
412
412
412
412
410
410
408
408
406
408
406
402
398
394
394
392
394
392
392
388
386
384
384
380
378
378
374
374
366
362
360
360
358
486
482
352
352
474
344
344
468
340
336
334
456
326
320
320
318
317
310
312
308
306
432
302
428
298
295
290
418
416
416
282
276
274
272
270
264
384
256
384
384
252
250
245
244
236
238
232
236
232
232
227
222
223
222
222
218
218
216
212
212
208
204
202
204
204
199
200
196
196
192
192
192
190
190
184
182
181
178
178
176
176
172
172
170
168
166
166
162
162
164
160
156
152
150
152
146
146
144
146
142
144
139
138
136
136
134
132
132
130
128
126
126
124
124
118
121
120
118
244
114
116
112
110
106
110
108
108
108
104
108
102
104
105
104
102
100
230
100
95
96
96
98
90
90
92
88
90
86
88
87
216
216
86
84
213
85
84
86
86
86
87
87
86
210
82
212
84
79
82
212
86
80
86
83
84
86
88
86
91
93
94
96
104
108
116
118
121
128
132
138
144
164
172
174
186
194
236
248
284
290
298
310
316
325
334
346
482
362
370
414
422
430
436
444
450
458
462
468
476
484
488
494
520
526
536
544
676
684
558
582
750
634
644
644
648
652
646
648
650
651
650
656
654
658
656
658
656
656
654
658
656
654
658
658
659
660
656
658
656
656
658
656
656
656
654
654
654
652
654
654
654
652
650
652
650
652
650
644
642
640
642
640
632
630
632
628
632
630
626
622
623
764
764
764
794
792
790
789
788
783
783
906
906
900
900
766
764
764
764
760
760
760
764
760
760
760
762
758
760
752
754
754
754
758
752
756
754
755
752
754
748
751
753
753
756
754
758
756
758
756
754
756
760
760
758
756
757
756
754
756
758
756
756
756
751
754
753
751
752
752
756
754
752
752
752
750
754
751
750
742
744
744
744
742
741
740
740
740
738
738
740
739
738
738
736
732
734
730
730
728
726
726
722
726
720
722
722
721
718
718
718
718
718
718
714
717
713
710
712
710
708
708
708
710
706
706
704
704
702
702
702
704
702
701
700
700
702
700
701
703
698
698
696
697
698
698
700
701
703
703
706
708
708
710
716
720
718
722
724
730
735
738
742
748
752
755
762
762
897
776
782
910
796
796
932
808
814
821
830
838
841
846
854
860
866
874
882
886
892
915
920
927
933
938
948
954
960
968
971
993
998
1003
1012
1018
1023
1023
1023
1023
1023
1023
1023
1023
1023
1023
1023
1023
1023
1023
1023
1023
1023
1023
1023
1023
1023
1023
1023
1023
1023
1023
1023
1023
1023
1023
1023
1023
1023
1023
1023
1023
1023
1023
1023
1023
1023
1023
1023
1023
1023
1023
1023
1023
1023
1023
1023
1023
1023
1023
1023
1023
1023
1023
1023
1023
1023
1023
1023
1023
1023
1023
1023
1023
1023
1023
1023
1023
1023
1023
1023
1023
1023
1023
1023
1023
1023
1023
1023
1023
1023
1023
1023
1023
1023
1023
1023
1023
1023
1023
1023
1023
1023
1023
1023
1023
1023
1023
1023
1023
1023
1023
1023
1023
1023
1023
1023
1023
1023
1023
1023
1023
1023
1023
1023
1023
1023
1023
1023
1023
1023
1023
1023
1023
1023
1023
1023
1023
1023
1023
1023
1023
1023
1023
1023
1023
1023
1023
1023
1023
1023
1023
1023
1023
1023
1023
1023
1023
1023
1023
1023
1023
1023
1023
1023
1023
1023
1023
1023
1023
1023
1023
1023
1023
1023
1023
1023
1023
1023
1023
1023
1023
1023
1023
1023
1023
1023
1023
1023
1023
1023
1023
1023
1023
1023
1023
1023
1023
1023
1023
1023
1023
1023
1023
1023
1023
1023
1023
1023
1023
1023
1023
1023
1023
1023
1023
1023
1023
1023
1023
1023
1023
1023
1023
1023
1023
1023
1023
1023
1023
1023
1023
1023
1023
1023
1023
1023
1023
1023
1023
1023
1023
1023
1023
1023
1023
1023
1023
1023
1023
1023
1023
1023
1023
1023
1023
1023
1023
1023
1023
1023
1023
1023
1023
1023
1023
1023
1023
1023
1023
1023
1023
1023
1023
1023
1023
1023
1023
1023
1023
1023
1023
1023
1023
1023
1023
1023
1023
1023
1023
1023
1023
1023
1023
1023
1023
1023
1023
1023
1023
1023
1023
1023
1023
1023
1023
1023
1023
1023
1023
1023
1023
1023
1023
1023
1023
1023
1023
1023
1023
1023
1023
1020
1016
1014
1008
1010
1004
1004
1001
998
1000
991
992
992
986
986
984
988
978
980
977
975
974
970
971
967
968
966
963
962
962
958
957
958
956
950
952
950
951
948
944
946
942
944
943
935
936
932
938
934
929
930
928
926
925
924
924
922
921
924
915
918
912
915
914
913
909
912
908
910
903
904
902
902
903
897
896
894
894
891
890
886
884
880
878
872
872
870
868
867
865
862
858
862
858
856
854
850
854
850
848
845
842
838
840
964
834
826
946
811
810
934
802
928
906
903
774
762
758
756
746
742
741
733
724
718
708
706
700
699
694
662
660
654
652
650
644
636
632
630
624
624
620
616
612
612
606
606
600
598
596
592
588
588
584
580
708
574
704
574
568
570
566
566
566
562
560
562
564
570
570
572
576
578
582
714
588
592
600
604
606
612
620
626
630
640
644
653
660
668
674
682
687
696
706
716
719
726
736
744
748
758
764
772
782
785
794
800
810
814
822
828
834
844
850
856
861
868
875
880
888
890
896
902
908
911
918
920
927
930
934
940
945
946
950
954
959
959
966
968
972
974
976
979
977
984
986
989
989
994
1000
1000
1008
1008
1011
1007
1008
1011
1011
1008
1010
1008
1010
1010
1006
1007
1009
1007
1004
1002
1008
999
999
1000
992
991
993
988
989
988
983
981
979
978
978
978
966
963
960
955
954
952
946
946
944
938
934
935
931
914
909
906
904
897
897
890
890
886
867
866
858
857
855
850
844
968
966
832
823
820
944
940
808
930
801
796
792
788
760
754
750
746
744
734
728
728
720
719
710
706
702
702
696
684
682
676
674
672
672
664
662
660
662
656
649
644
642
638
636
633
632
628
626
626
624
622
620
620
616
622
614
612
740
612
736
612
606
605
605
606
606
605
602
604
602
732
602
602
602
602
602
732
602
604
604
606
604
608
610
610
612
612
614
616
614
614
618
616
618
618
622
622
623
624
626
626
626
630
630
632
629
628
632
630
634
632
632
634
634
632
632
636
634
634
634
636
634
634
636
630
632
632
630
630
630
630
628
752
624
624
622
618
616
619
614
616
614
614
608
608
608
608
604
605
600
728
600
594
594
590
588
586
586
584
580
706
704
575
570
562
560
558
556
554
554
554
552
548
550
544
544
540
536
536
532
530
530
526
524
520
518
516
510
509
508
504
506
502
500
500
500
494
494
490
488
486
486
484
480
476
474
472
470
468
466
462
460
458
458
454
448
448
446
446
444
442
438
434
430
430
428
426
426
424
420
420
418
416
418
414
410
404
402
398
398
396
396
388
390
388
388
386
384
384
380
380
377
378
376
376
374
504
372
370
368
366
362
362
358
358
356
352
350
352
348
348
348
348
346
344
344
342
338
340
334
334
334
330
334
328
326
326
328
328
324
323
326
451
318
318
320
316
316
315
314
314
312
310
312
310
432
304
306
298
296
294
296
296
418
420
292
294
294
292
288
418
286
284
281
282
278
278
276
280
276
277
272
272
270
270
269
266
266
392
390
262
258
386
256
386
256
384
258
258
254
254
256
254
255
254
386
408
484
362
370
424
454
460
470
494
524
706
608
744
624
630
640
646
654
678
718
765
780
934
940
968
850
853
865
992
994
863
996
996
870
870
870
868
867
868
866
997
994
863
862
862
854
850
850
844
837
836
832
830
826
822
942
810
934
806
800
804
796
798
793
794
788
786
782
782
904
778
896
898
768
764
762
756
750
748
744
744
742
730
728
725
721
712
710
698
694
690
692
688
676
666
668
666
660
654
653
652
649
644
634
634
633
632
628
628
628
624
620
620
620
614
616
618
614
612
610
614
610
610
610
610
610
740
610
610
740
612
612
612
616
614
614
614
617
744
616
746
750
620
626
626
626
624
624
624
628
628
628
628
628
754
628
624
624
626
626
624
628
626
622
622
620
620
622
622
618
620
616
614
614
612
614
610
612
608
608
605
602
602
600
592
590
588
586
582
712
582
706
706
574
574
574
696
562
562
554
554
554
548
676
546
542
668
540
536
532
528
528
528
524
650
518
518
640
640
508
506
502
500
494
494
490
488
488
486
484
478
478
474
472
474
470
468
464
460
460
454
452
446
446
436
432
426
428
426
418
416
414
414
410
402
402
398
396
392
392
388
386
388
382
380
380
377
374
370
498
370
364
360
360
360
358
356
356
345
344
342
340
340
338
336
334
334
334
334
330
330
330
326
322
320
450
448
319
320
316
314
442
314
310
312
432
302
303
304
429
298
299
298
298
418
290
416
284
282
280
402
276
274
272
267
266
268
262
260
254
254
253
251
245
244
240
244
240
239
234
234
230
228
222
224
223
218
221
218
220
216
216
212
208
208
208
208
206
202
202
204
202
202
200
198
198
200
200
200
198
198
200
204
207
208
211
210
214
216
222
222
228
230
236
240
242
248
256
262
394
276
408
292
296
302
314
338
346
358
362
374
386
466
476
506
520
526
662
542
550
560
564
570
708
588
736
648
652
668
676
682
690
696
700
708
710
720
734
736
742
756
758
900
902
778
906
781
786
791
798
800
932
934
806
806
809
817
818
821
820
952
954
827
828
954
828
830
828
828
828
824
827
826
952
952
826
820
947
823
947
946
818
819
816
814
810
815
812
812
811
936
806
808
936
804
804
806
802
800
798
797
798
796
795
796
794
794
794
792
792
788
789
788
786
786
786
780
786
912
784
781
908
778
782
906
780
776
776
771
772
770
896
896
764
766
764
760
763
760
756
756
756
754
752
751
753
751
746
746
746
744
744
744
740
740
740
736
736
734
730
734
732
730
727
724
730
726
726
726
726
724
726
722
724
718
722
722
720
722
720
720
724
718
718
720
716
718
718
718
720
716
718
718
718
720
718
716
715
719
712
716
715
718
715
714
713
716
718
716
717
716
718
714
716
714
714
714
712
712
712
714
710
714
712
712
712
712
712
710
712
710
708
710
706
706
702
708
704
702
692
690
685
678
670
668
668
668
662
662
662
660
660
656
656
654
654
652
652
644
647
644
638
640
636
634
636
634
630
626
626
626
622
622
620
620
616
616
616
612
612
612
606
608
604
606
602
598
598
594
592
720
592
592
712
582
708
576
574
574
700
688
688
684
558
554
680
546
674
546
532
526
644
644
516
512
514
504
504
506
498
490
490
490
486
482
484
480
478
476
470
470
468
464
456
452
448
446
446
444
444
438
436
434
432
424
428
426
426
424
416
418
418
418
416
414
414
412
408
402
402
402
396
386
386
386
382
380
378
376
374
374
370
368
369
368
366
490
362
360
360
358
356
354
482
350
346
346
342
344
342
342
338
336
338
336
334
331
332
332
328
326
324
323
324
322
448
316
318
316
318
316
316
316
316
314
312
314
312
312
440
310
312
310
312
440
312
440
310
312
312
314
309
316
314
318
318
322
324
326
330
330
334
340
344
348
350
352
363
368
374
380
386
394
402
406
410
436
444
452
472
482
488
496
644
656
548
558
692
570
708
586
590
602
606
616
624
632
642
646
654
660
664
674
676
684
695
698
704
708
712
720
726
734
738
742
748
766
768
774
781
782
788
796
796
798
802
806
810
818
824
828
828
834
836
838
839
844
848
850
854
854
855
857
862
862
864
996
867
868
996
994
869
870
870
870
872
878
878
876
876
880
880
882
881
878
880
882
884
884
880
882
882
882
880
880
878
883
880
880
878
878
876
875
876
874
874
876
876
998
868
870
870
996
864
866
994
862
866
863
862
861
860
984
986
856
982
853
854
978
850
849
847
844
846
971
844
843
838
835
836
838
836
836
831
836
836
830
830
828
956
952
819
815
812
814
810
812
810
810
814
936
936
808
807
802
798
798
796
798
798
798
798
798
920
790
790
792
788
792
916
918
916
790
789
792
922
920
789
794
920
792
790
792
793
792
796
796
794
794
792
795
922
922
924
922
794
924
922
920
922
793
790
793
916
920
790
790
792
786
916
788
786
912
783
783
780
909
780
782
780
776
782
774
778
776
778
770
774
771
774
774
766
772
764
765
764
762
764
761
762
760
756
758
758
756
754
754
754
750
751
750
748
748
750
750
741
746
742
740
740
738
740
738
736
736
734
730
734
728
728
725
726
728
726
726
722
724
720
720
717
720
716
716
716
716
712
712
710
708
708
705
706
704
700
696
694
692
690
692
685
683
678
676
676
675
674
676
672
672
668
670
668
666
660
664
656
658
656
654
658
652
652
650
648
648
648
644
642
642
636
636
634
632
628
632
626
622
626
622
624
618
740
610
605
606
606
604
602
602
729
598
600
598
596
596
598
592
596
588
588
712
582
580
578
704
570
568
564
698
692
564
692
688
560
558
558
556
682
680
682
550
552
678
549
550
672
538
542
538
662
658
534
532
658
530
526
526
524
524
524
522
516
642
516
640
510
510
510
504
504
502
504
500
498
494
494
493
490
488
488
492
490
490
490
494
496
494
498
500
504
514
644
522
538
542
674
690
696
570
704
582
596
614
620
628
634
638
664
672
676
680
686
692
698
700
703
708
718
722
726
734
740
744
758
765
771
786
796
795
798
808
808
940
816
818
822
827
828
962
962
839
971
847
847
848
854
985
858
860
861
866
868
1002
1002
878
1010
1010
1009
888
887
889
894
894
892
894
894
899
896
898
897
898
897
899
900
894
892
891
890
1018
886
888
886
882
886
886
884
884
885
881
882
881
879
877
874
1000
870
870
872
870
868
868
868
868
858
860
860
984
855
983
854
978
846
974
844
844
841
838
836
970
964
835
834
832
831
830
824
948
820
947
809
936
807
934
810
809
932
808
936
806
936
806
808
932
812
805
808
937
810
806
806
936
809
811
940
808
810
810
812
812
938
811
936
936
940
810
806
808
936
804
940
810
941
814
813
939
812
812
810
810
809
812
938
808
936
806
940
807
808
808
806
806
806
808
806
930
804
808
934
800
804
803
804
804
922
926
922
920
924
796
922
798
792
920
794
788
790
792
790
786
783
912
784
781
780
777
778
902
774
775
770
770
772
772
770
768
766
767
764
760
764
762
760
758
756
753
750
753
752
746
744
745
742
740
742
738
736
734
734
732
730
728
730
728
728
728
724
724
722
720
719
712
714
714
708
708
708
704
704
700
702
700
696
692
692
694
692
692
690
690
686
686
682
684
678
676
674
668
666
663
664
662
662
660
662
660
656
660
654
656
654
652
650
650
646
650
644
646
638
638
635
632
760
758
630
628
628
626
626
626
624
620
618
744
612
608
604
606
604
604
594
588
588
588
588
586
584
582
582
712
578
575
578
574
572
570
568
568
566
566
564
562
564
562
558
560
558
556
554
552
554
680
552
550
550
678
550
678
550
546
550
676
550
552
550
550
680
680
548
554
684
556
556
558
560
692
564
566
570
574
580
590
592
598
602
606
610
624
630
630
636
638
642
660
664
666
670
678
682
686
694
696
702
717
730
739
752
756
760
764
766
774
777
778
786
787
928
806
810
942
816
820
827
828
834
962
838
838
972
852
856
858
862
866
996
868
874
872
875
878
880
878
881
878
1012
885
886
888
891
896
896
890
891
892
892
896
894
900
896
896
894
896
898
898
898
896
898
898
898
898
898
898
898
897
898
898
894
896
890
886
892
890
890
886
888
884
886
886
886
1012
884
880
884
880
1010
874
878
878
873
872
872
868
868
868
865
868
868
864
863
862
858
858
858
859
854
856
854
852
854
850
848
846
844
846
844
839
838
836
836
832
834
829
830
827
825
825
822
820
822
819
816
818
815
814
812
815
810
813
812
936
810
806
804
800
800
800
798
798
796
798
794
794
792
792
916
792
790
790
789
788
788
788
788
784
786
788
786
914
786
787
787
784
784
784
779
782
782
784
784
780
782
914
784
784
782
784
912
782
782
782
781
782
782
782
784
782
779
779
908
778
778
784
780
906
776
775
904
776
776
776
776
776
902
773
777
772
900
898
770
900
772
770
767
766
768
766
766
764
768
766
766
764
762
764
764
762
762
764
764
760
764
760
762
758
758
761
758
756
760
756
754
750
747
746
750
746
745
744
744
742
738
739
740
736
734
734
731
728
726
724
723
720
718
720
716
716
716
714
714
710
708
710
708
702
700
700
694
696
694
692
688
687
686
686
686
682
678
676
672
672
670
670
664
664
664
662
660
660
654
652
654
648
646
644
640
640
640
636
636
630
632
628
628
752
622
622
618
619
616
616
612
742
614
610
612
608
606
604
604
600
598
598
598
596
596
590
590
716
588
712
584
584
580
578
704
570
570
566
692
562
558
558
556
674
672
674
672
542
668
538
538
662
534
536
532
660
532
530
530
652
526
522
522
520
644
642
512
512
510
508
498
498
496
492
494
492
490
490
486
486
484
484
480
484
482
480
478
478
476
474
470
468
468
464
464
466
464
458
460
456
458
458
454
454
456
452
450
450
448
444
442
442
442
442
438
438
436
434
432
430
430
428
428
428
424
426
428
428
426
426
426
422
422
424
424
422
422
422
420
424
424
424
424
426
426
428
430
430
436
440
440
444
452
454
454
460
468
480
488
492
500
502
520
652
534
538
540
548
556
688
564
574
716
594
602
606
736
614
620
624
630
638
646
650
656
662
667
672
674
682
684
690
694
700
708
707
714
718
724
727
730
732
738
740
744
748
750
754
758
760
764
766
772
773
775
779
780
784
786
788
794
794
796
800
800
802
804
806
810
809
810
812
814
940
816
816
818
816
946
820
816
818
820
820
822
820
822
822
823
822
822
824
822
822
823
824
820
824
819
822
818
819
818
820
820
944
814
815
816
815
812
814
814
812
812
808
808
936
812
806
808
804
806
806
806
803
806
802
802
803
800
798
798
924
796
796
794
791
790
789
784
786
786
782
782
780
770
898
898
764
766
764
760
759
761
758
758
756
744
744
734
730
727
730
726
726
724
722
722
722
718
720
716
714
716
718
714
712
714
709
708
706
706
703
704
705
704
703
704
704
702
702
704
702
698
702
700
698
702
698
698
696
698
696
696
700
698
698
698
700
700
699
700
698
700
698
700
700
700
702
698
698
700
700
698
699
700
702
702
700
702
702
700
702
702
702
702
702
700
700
699
702
700
701
702
699
700
698
696
694
696
696
698
694
694
694
694
696
692
694
690
692
691
692
690
690
686
688
684
684
686
684
686
684
686
684
682
682
682
680
682
680
678
678
674
676
672
672
668
668
666
664
666
662
660
660
658
658
654
648
648
644
642
640
636
634
635
634
632
630
630
632
626
624
622
622
618
622
620
618
618
620
614
614
612
614
608
612
610
608
608
606
606
602
602
602
600
600
598
598
724
596
592
594
594
590
589
590
586
587
588
584
584
582
578
576
576
574
574
572
572
570
568
568
568
566
562
564
558
558
558
558
554
552
552
554
552
552
552
550
546
546
546
672
670
540
538
536
534
534
532
532
656
528
656
654
524
522
650
522
520
518
646
514
640
514
516
640
510
506
508
504
502
500
498
498
494
494
498
493
490
490
488
484
486
482
482
482
478
478
478
480
472
468
466
462
460
458
456
458
454
452
454
454
446
442
438
440
434
432
430
430
428
428
426
428
422
424
422
424
422
420
420
418
416
416
416
412
412
410
410
412
406
404
408
408
404
402
404
400
402
400
400
402
402
398
398
402
400
404
400
404
402
408
408
412
420
418
424
428
438
442
446
452
456
460
464
470
472
476
500
506
640
520
652
528
532
540
672
570
575
578
586
590
608
616
746
624
628
636
640
656
660
664
672
676
688
690
702
706
713
716
718
720
726
726
731
738
737
738
744
749
763
896
769
767
774
774
904
906
782
781
908
910
783
783
914
912
788
787
789
788
922
922
792
920
794
794
792
790
792
916
786
916
790
784
784
786
780
780
780
780
774
904
904
774
898
898
768
764
762
762
764
760
760
756
752
756
754
752
754
752
751
750
750
750
747
746
748
746
746
746
746
748
748
744
740
746
744
742
742
738
736
735
736
736
736
734
734
732
732
732
732
729
730
730
728
724
726
726
720
718
720
718
714
716
712
710
708
706
698
696
696
692
691
692
692
688
686
686
688
682
684
681
680
680
676
678
676
678
678
678
678
680
678
676
676
677
678
676
676
676
676
676
676
674
672
674
672
672
672
674
670
674
669
674
672
670
671
668
670
672
670
675
671
671
674
670
672
672
672
674
674
672
674
672
672
670
670
672
672
669
670
670
668
672
670
670
670
670
670
672
672
670
666
670
668
668
668
666
664
664
664
662
662
662
662
662
658
658
658
660
658
654
652
654
654
654
654
650
652
650
648
648
644
646
644
640
644
642
640
640
636
636
634
632
628
628
624
624
622
622
618
618
614
616
613
612
612
612
608
606
608
602
604
600
600
728
594
594
594
594
590
588
588
586
588
582
580
582
578
576
578
574
572
572
572
568
570
566
564
564
560
562
560
556
556
554
552
682
680
550
674
674
542
542
542
538
538
536
534
532
532
530
526
526
524
520
648
646
508
502
502
500
494
494
488
488
482
484
480
480
478
478
476
476
472
474
474
470
468
468
456
454
450
450
450
447
446
446
444
442
444
444
440
442
440
440
438
434
440
434
432
428
428
424
428
428
424
422
420
418
418
412
414
409
410
408
408
408
404
402
402
400
399
400
398
396
392
392
394
388
388
390
386
386
384
382
380
372
370
370
368
366
366
364
366
364
364
362
360
358
357
356
347
470
344
342
468
472
462
456
454
452
452
458
416
416
426
474
478
502
504
536
570
576
584
588
594
600
606
614
618
620
626
634
648
666
684
696
700
706
708
709
714
720
718
722
726
732
738
742
744
758
756
758
760
762
760
758
762
760
762
761
762
762
762
760
764
763
764
762
762
758
759
760
760
758
756
751
752
752
748
744
744
746
744
742
742
739
736
736
732
734
732
730
733
728
728
732
726
730
726
724
726
724
722
722
722
722
722
722
718
720
720
716
714
712
710
710
710
705
710
706
703
702
700
698
700
698
698
694
691
689
690
688
686
686
682
682
682
678
679
678
674
676
670
670
670
666
670
662
664
658
660
658
660
654
654
654
654
654
652
651
651
648
648
646
644
648
648
648
646
644
646
644
642
643
646
642
644
642
640
642
640
640
642
640
638
642
636
636
636
638
638
640
638
642
638
640
640
642
642
642
640
640
642
640
644
642
646
644
644
642
644
648
648
646
648
648
648
646
650
648
650
650
652
650
650
652
650
650
647
648
648
648
646
644
643
642
642
638
640
640
640
636
638
638
634
636
634
630
628
626
626
626
628
624
622
620
622
620
620
618
619
616
616
612
608
606
604
602
728
602
596
594
722
592
588
588
590
588
585
584
712
580
578
578
578
574
574
574
574
572
568
568
566
566
560
564
558
688
556
684
556
554
552
548
678
554
544
546
544
542
542
540
536
534
658
530
656
656
526
522
522
648
644
516
642
514
640
508
506
506
506
500
498
498
494
494
492
494
492
490
490
486
488
486
484
484
482
480
478
476
474
472
470
466
466
466
464
466
462
462
456
456
458
450
452
452
448
448
445
446
436
438
434
434
434
430
428
430
428
428
424
424
422
420
420
420
420
416
414
414
416
412
408
408
408
406
404
406
404
404
403
404
402
400
398
398
396
400
396
396
394
396
394
394
392
392
392
388
390
388
384
384
384
382
384
380
384
380
380
384
382
379
380
380
376
378
380
386
380
384
386
390
396
404
406
410
412
416
420
426
428
430
462
466
468
474
478
484
484
498
498
504
512
528
532
668
546
576
718
604
610
626
630
764
640
646
652
662
666
672
674
682
682
688
692
704
718
720
722
726
728
734
735
740
743
750
752
754
760
766
764
896
768
764
766
764
896
766
765
766
765
765
766
764
768
763
764
764
760
760
756
762
756
753
750
752
748
748
746
747
744
744
741
740
736
738
734
734
734
726
720
718
716
716
714
712
714
707
708
706
704
696
692
690
690
688
684
686
686
684
682
678
678
680
670
666
666
658
658
656
656
656
652
654
650
646
648
646
642
644
642
642
642
640
637
638
636
638
638
636
638
642
637
640
636
640
642
642
642
640
644
640
642
644
642
640
638
644
640
640
638
638
636
642
638
638
640
764
636
638
638
638
636
638
640
644
640
638
640
636
636
638
632
630
758
632
628
628
626
626
626
622
628
622
622
620
620
744
746
616
616
616
614
614
738
610
608
607
606
604
604
602
600
600
598
596
592
720
590
590
588
588
586
712
706
704
575
574
574
572
570
568
564
690
562
558
558
554
550
552
676
676
546
542
668
536
664
536
532
526
526
520
646
646
516
640
642
640
506
508
506
506
500
492
490
490
486
486
484
482
480
478
476
476
474
474
472
472
470
464
460
464
460
460
456
458
454
454
454
452
452
448
448
446
442
444
442
442
436
436
438
434
434
430
428
424
426
422
422
420
420
420
418
418
412
412
408
408
408
404
404
402
399
398
402
400
396
394
396
392
388
386
386
384
382
382
378
378
376
373
372
374
372
372
370
372
498
368
366
364
360
484
352
350
347
350
475
346
344
342
340
340
468
466
460
334
462
332
330
330
330
326
325
326
322
326
322
448
319
316
318
314
314
440
312
433
312
308
434
306
432
306
304
302
304
306
300
300
302
298
298
296
296
424
424
422
294
296
298
296
298
300
302
430
314
316
318
456
332
334
340
472
346
356
358
364
384
390
396
400
408
412
422
424
444
448
464
472
650
532
534
540
676
554
560
568
570
576
582
716
596
600
604
610
616
620
622
632
634
640
664
670
672
678
680
692
696
715
717
720
728
728
731
736
734
740
740
746
746
745
750
749
750
752
752
757
757
756
758
760
760
760
762
764
762
762
763
764
762
762
764
764
762
761
760
764
762
763
762
760
758
760
762
760
760
758
754
752
753
751
750
750
748
750
748
746
743
744
742
742
740
738
738
736
734
734
732
726
729
727
726
728
726
725
724
720
723
720
717
717
715
716
710
711
710
704
706
702
702
700
700
696
696
694
690
690
690
688
686
685
684
682
684
682
680
680
676
674
672
670
670
669
668
666
662
662
658
662
658
656
654
646
646
646
642
644
640
640
638
638
636
632
634
632
634
635
628
630
628
628
628
628
632
628
630
629
632
632
632
632
632
634
632
628
628
630
758
630
628
630
632
630
760
634
632
762
634
632
634
634
634
634
632
632
632
632
632
630
628
628
630
633
628
630
628
630
628
630
628
628
628
630
628
628
628
628
622
626
626
622
622
622
752
626
624
621
622
620
622
620
618
620
618
618
618
618
618
616
612
615
612
615
608
606
736
604
604
604
602
600
602
724
602
596
594
590
590
590
588
588
588
588
710
580
580
568
692
564
690
559
686
682
550
674
550
674
542
670
664
532
656
528
528
654
522
522
518
516
642
514
642
506
502
500
496
498
490
488
484
484
484
482
480
478
476
472
472
470
468
464
466
464
462
464
462
460
460
460
458
460
460
460
460
456
458
456
456
452
456
452
450
448
448
448
446
444
442
438
438
436
434
430
428
426
428
428
426
426
422
420
420
418
422
416
414
416
414
412
412
410
410
410
408
410
404
404
404
400
402
400
400
398
396
396
394
392
392
390
392
390
388
386
384
384
386
384
380
382
380
378
376
376
376
374
376
372
372
372
368
368
366
364
364
358
362
362
488
358
354
354
480
348
350
348
341
342
344
340
472
342
344
342
344
346
348
348
350
350
356
360
362
366
368
372
378
382
384
392
394
400
402
408
414
416
424
426
430
434
442
448
470
472
484
486
494
516
526
530
536
542
546
552
686
568
572
575
580
590
592
600
604
612
622
632
634
640
648
664
668
676
682
685
686
694
696
700
704
708
714
714
716
720
724
731
730
732
736
740
740
744
752
754
758
762
764
768
766
901
897
778
776
908
910
778
908
783
782
782
782
782
779
782
779
908
910
781
908
778
782
906
782
782
776
776
776
776
772
900
898
772
768
896
766
766
766
762
764
763
762
762
762
760
760
758
755
756
752
756
754
752
752
750
750
749
747
746
748
742
742
739
739
739
732
738
736
734
731
731
730
726
728
726
724
722
722
722
716
718
714
714
714
714
710
706
706
700
700
698
698
696
694
694
688
688
688
682
682
680
682
683
676
676
674
674
672
670
672
669
668
666
666
662
662
662
660
660
658
656
658
656
652
656
656
652
652
650
650
650
648
646
644
646
644
644
646
644
644
640
646
644
644
642
646
642
646
642
644
642
644
644
642
642
646
644
642
644
644
644
644
644
644
646
646
646
648
646
644
648
646
648
650
648
650
650
652
652
650
650
654
652
654
648
650
650
648
648
648
644
648
646
646
644
646
642
640
644
642
640
640
640
640
640
636
636
634
632
634
632
628
628
628
628
626
626
626
624
621
624
620
620
618
616
620
614
614
616
614
608
608
608
604
604
602
604
602
600
596
594
594
594
590
590
588
584
710
578
582
574
700
570
568
694
566
562
558
558
556
556
552
680
550
550
550
676
672
540
540
538
532
532
530
526
656
524
644
516
506
504
500
504
502
492
492
494
494
490
488
488
486
484
480
478
477
476
474
476
472
470
466
466
462
460
458
460
456
454
450
456
448
448
448
446
446
446
438
440
438
436
436
430
432
428
428
428
424
424
422
420
420
420
418
414
414
414
410
406
406
404
406
402
400
400
400
396
398
398
392
392
392
390
386
386
382
382
381
380
378
380
380
374
374
376
372
498
496
364
362
362
362
360
360
486
356
358
480
480
354
352
476
346
344
344
341
342
342
340
466
336
335
332
334
332
332
328
456
326
450
448
316
318
314
314
309
308
432
304
302
430
428
300
298
428
298
298
296
426
422
296
292
289
420
416
416
416
284
286
410
410
282
278
280
282
282
412
286
288
290
292
292
307
452
348
352
484
368
370
504
412
432
440
445
452
462
466
472
478
486
490
498
504
516
520
654
534
540
548
554
558
564
574
574
580
718
592
598
604
612
628
634
652
656
656
662
666
670
676
678
682
698
708
712
714
718
720
730
732
733
736
740
740
744
746
746
750
752
750
756
758
756
760
760
762
763
764
768
770
898
896
766
768
770
770
768
898
766
896
772
766
770
896
898
772
896
770
768
897
764
766
766
764
764
761
762
760
758
760
752
748
750
749
746
742
744
744
738
740
738
736
734
732
726
722
722
718
718
717
716
713
714
710
708
707
700
699
698
694
696
694
690
692
688
686
684
686
684
680
680
678
678
676
674
674
672
672
668
668
666
664
664
660
660
658
656
660
654
651
652
650
650
652
650
648
650
644
646
648
646
646
646
644
642
646
646
644
642
642
640
640
638
638
642
642
638
638
636
642
642
638
642
640
642
646
642
642
642
640
644
644
646
644
645
648
646
646
650
652
650
650
650
650
650
650
656
653
653
652
656
654
654
652
654
656
656
654
654
655
656
656
660
658
658
660
658
656
660
658
658
658
660
656
655
660
656
656
656
656
654
656
654
654
654
648
652
654
648
650
648
646
646
644
645
644
640
644
642
640
640
638
638
636
636
636
634
632
634
628
752
622
624
748
616
618
744
614
614
612
604
602
602
600
598
594
592
590
592
588
590
586
708
706
706
575
574
566
562
566
560
688
554
552
550
550
550
678
546
544
542
542
540
668
538
538
536
660
534
530
530
528
528
526
526
524
524
648
520
521
518
642
646
642
510
510
506
508
506
504
504
500
498
498
496
494
494
492
490
488
488
486
484
484
478
480
478
476
476
476
472
474
470
470
470
468
466
462
462
458
456
454
452
452
446
446
448
444
444
444
440
442
438
440
436
434
436
434
432
430
432
430
428
428
426
428
426
426
424
418
418
420
416
414
416
412
412
410
410
406
408
406
402
404
402
402
400
396
398
402
400
396
396
394
394
394
392
390
386
384
384
380
384
384
382
380
378
374
374
370
370
370
368
370
366
368
496
366
366
364
364
364
362
364
364
365
364
362
364
366
496
500
376
382
384
388
396
398
402
404
412
414
418
428
426
434
440
440
448
454
458
464
470
474
480
486
492
500
504
509
644
522
530
534
542
548
553
558
692
574
576
584
590
594
601
618
638
638
650
654
660
664
668
685
686
695
696
700
704
710
712
715
718
726
729
736
742
746
748
750
753
755
759
762
766
768
898
900
774
916
790
920
921
792
923
923
922
925
924
924
794
922
916
784
904
896
764
764
758
762
761
759
760
758
754
750
751
752
748
748
744
740
738
734
734
734
734
728
727
728
724
716
716
709
710
706
696
694
690
686
682
682
680
675
674
675
672
665
666
664
656
656
654
654
650
650
652
644
644
642
642
644
640
640
638
634
634
634
630
630
630
628
628
628
628
624
626
626
626
624
624
624
624
622
621
622
624
622
620
620
624
618
620
752
622
622
624
624
622
752
626
624
624
626
626
624
624
626
624
626
628
626
628
624
628
626
628
628
628
632
629
630
630
628
628
632
628
632
628
628
630
632
626
622
620
618
618
616
744
618
616
606
606
604
602
602
602
600
600
726
724
722
722
590
586
714
586
712
710
576
574
572
572
566
564
564
560
560
562
684
558
554
554
554
680
678
672
544
542
540
666
526
526
650
522
518
516
516
516
506
502
504
500
496
494
494
494
492
486
490
484
484
484
482
482
476
478
474
474
472
472
466
468
464
462
460
460
458
456
454
454
450
450
448
446
446
444
442
440
440
436
432
432
432
432
428
428
424
420
418
416
414
414
406
408
406
404
404
402
402
398
396
394
394
392
396
392
390
388
386
386
382
378
378
378
378
378
376
372
376
376
376
370
368
366
364
364
364
364
354
480
356
354
348
356
478
350
348
350
346
346
344
344
468
344
466
338
336
334
334
334
332
332
330
330
328
326
330
328
328
324
328
326
454
324
324
324
322
322
322
322
320
322
450
452
320
325
324
326
322
328
330
332
332
334
336
338
340
346
348
354
482
360
364
372
372
374
382
386
392
396
404
408
410
420
422
432
440
440
446
452
458
466
470
478
486
490
498
502
642
646
526
530
538
546
546
554
564
568
576
582
586
596
602
620
626
630
637
646
648
654
660
664
670
674
680
682
690
696
700
706
708
712
716
724
726
730
736
740
742
750
750
753
758
760
762
898
774
776
781
782
780
786
914
786
790
791
794
798
796
798
802
932
804
806
806
807
938
942
938
812
810
812
810
938
809
810
936
938
808
808
808
807
932
808
806
932
804
932
802
799
801
800
802
798
798
794
794
792
789
790
792
914
912
912
783
782
782
781
908
902
901
773
774
772
772
768
765
767
766
768
764
762
762
758
754
756
756
754
752
750
746
746
742
742
742
740
739
734
736
736
736
730
730
728
724
720
722
718
718
718
713
714
710
712
710
708
706
704
704
706
702
700
699
698
696
698
694
696
692
692
694
688
692
688
686
684
684
684
682
680
684
682
680
684
684
680
681
680
682
682
680
682
682
680
680
680
678
680
681
680
682
680
680
682
680
678
682
682
682
681
682
682
682
682
682
682
682
686
682
684
684
684
684
685
684
684
681
686
686
688
684
686
686
684
685
683
686
682
685
686
686
684
684
686
684
682
686
686
684
686
684
682
684
684
682
680
682
680
680
678
677
676
674
678
676
672
674
670
669
671
670
666
668
666
666
662
662
662
658
658
656
658
656
654
654
650
650
646
644
638
637
634
628
628
628
626
624
623
622
622
620
744
618
616
614
742
612
610
736
608
604
606
604
604
602
602
598
598
598
592
591
590
588
586
588
712
582
708
576
574
576
572
572
570
572
566
564
690
558
558
558
556
556
554
554
552
676
548
544
542
670
540
538
664
534
530
532
526
652
526
524
524
650
648
518
516
640
510
506
506
500
502
502
496
498
494
494
490
488
486
486
486
484
482
484
480
478
478
478
476
474
470
472
468
470
470
466
466
462
458
458
456
456
458
452
452
452
448
446
446
442
442
442
438
440
438
434
436
432
434
430
430
430
430
428
426
422
426
424
424
422
420
416
414
416
412
412
410
408
408
406
406
406
406
404
400
404
400
398
398
396
394
392
392
390
390
386
384
384
380
380
382
374
376
374
372
370
368
368
368
368
366
364
362
362
360
358
358
356
356
356
354
352
350
350
350
348
348
348
346
345
342
342
340
340
340
340
336
336
464
336
330
332
328
326
324
324
324
332
468
472
344
348
352
364
368
370
376
384
388
392
410
416
444
450
458
464
468
474
480
486
504
526
534
540
674
684
690
566
584
720
596
624
628
636
644
646
652
668
672
690
690
696
702
706
704
716
718
722
726
738
738
742
747
760
762
770
772
904
908
780
910
784
914
915
789
790
794
920
794
792
796
797
798
794
794
797
798
798
798
796
798
796
796
798
796
922
796
796
792
918
914
784
914
779
782
904
774
769
770
764
764
764
762
757
756
757
751
752
752
748
748
746
746
748
746
746
741
742
740
736
736
738
734
734
732
730
728
727
724
724
720
722
718
718
716
714
714
712
710
710
706
706
702
702
700
694
692
691
690
688
686
682
682
681
680
676
674
670
674
670
670
664
664
664
664
664
662
662
660
656
660
654
656
654
654
656
654
654
654
654
652
652
650
652
652
650
650
650
650
649
650
654
654
652
654
652
652
652
652
652
652
650
652
653
652
652
652
650
653
646
648
650
650
650
646
652
648
648
650
648
644
644
642
644
642
642
638
642
638
640
638
642
636
637
636
636
634
636
632
634
635
632
630
626
628
756
626
622
622
622
622
620
618
618
620
742
742
614
610
610
738
736
606
606
604
604
604
588
580
708
580
706
572
568
570
566
688
556
556
550
546
672
668
666
532
528
656
526
522
522
642
510
506
504
500
500
500
500
494
492
490
482
476
476
476
476
472
474
468
456
452
450
448
446
446
446
442
440
440
440
440
436
436
436
434
432
432
430
420
420
420
422
418
418
416
414
412
414
406
402
404
400
400
400
396
398
396
394
394
392
390
388
386
388
386
382
380
378
376
374
368
368
366
364
362
486
480
342
344
340
338
338
338
340
464
336
334
336
334
332
332
330
328
326
324
326
319
318
322
318
314
314
314
312
307
308
308
308
306
304
302
300
300
296
428
296
296
296
424
294
294
292
421
294
294
426
296
296
300
428
300
306
308
438
313
316
316
322
324
330
332
338
361
364
372
376
384
388
396
404
410
414
421
440
446
452
458
464
472
478
484
492
512
516
526
674
552
558
562
572
575
580
590
596
602
608
632
652
674
686
694
694
710
714
720
727
732
736
736
738
744
758
758
758
761
764
898
898
774
904
904
904
777
782
909
784
787
787
915
912
789
788
788
916
788
789
782
788
787
914
787
916
910
904
779
780
902
905
906
776
901
900
768
766
764
766
762
762
760
760
756
748
746
746
744
747
744
742
740
740
738
734
736
733
732
730
728
728
726
724
720
724
718
718
714
712
711
709
709
706
704
703
705
698
698
698
694
692
694
688
684
686
682
684
681
680
678
674
672
670
670
668
662
664
660
658
660
656
652
652
648
648
646
642
640
644
640
760
632
760
630
756
628
756
762
754
626
750
752
752
624
622
623
622
622
754
626
624
628
754
628
754
628
628
628
628
630
630
632
630
632
634
632
634
632
634
634
634
636
634
634
630
632
630
634
634
634
638
634
632
628
632
628
760
632
630
630
626
752
626
622
622
620
620
616
616
744
612
612
736
728
604
601
598
596
590
710
580
580
578
574
574
572
570
568
568
562
556
552
550
548
548
544
538
664
532
658
524
524
648
650
518
644
508
510
508
506
504
496
492
492
494
482
480
478
478
476
476
472
472
468
468
464
462
458
458
452
446
450
448
446
446
444
442
440
442
442
438
438
438
428
428
424
424
422
422
420
422
420
416
416
416
414
414
412
409
409
410
408
406
408
404
402
402
404
404
398
402
398
398
400
400
396
398
394
392
392
390
384
382
382
379
378
376
374
374
372
372
368
366
366
364
364
366
364
360
488
360
360
356
356
354
356
352
352
479
350
348
354
350
348
476
350
348
348
348
348
346
476
346
348
348
354
480
366
370
372
376
386
390
394
416
432
438
442
446
450
466
492
494
500
506
514
518
526
530
676
554
562
570
572
588
596
612
620
624
632
632
652
678
682
686
688
695
698
704
706
712
714
716
726
726
730
733
750
753
754
758
758
762
762
766
766
770
900
900
776
776
778
780
782
784
916
912
786
786
790
786
785
788
914
788
916
788
788
788
913
912
913
784
782
784
910
782
784
781
904
906
778
775
774
774
900
772
763
758
757
758
754
750
748
749
744
742
740
738
738
734
734
730
730
727
725
724
714
712
710
710
700
700
698
696
692
692
690
688
684
684
682
676
674
670
668
668
666
664
662
654
654
650
652
646
644
646
643
642
640
637
638
636
634
634
634
630
628
629
628
629
630
624
628
624
622
752
622
619
620
622
622
624
622
624
626
622
620
624
628
628
627
626
633
628
630
760
632
632
632
635
634
634
632
638
636
634
638
640
638
642
642
638
640
640
636
640
640
640
636
642
640
638
642
638
640
640
636
634
632
634
634
632
632
630
632
632
632
630
628
628
626
624
624
620
626
618
622
618
622
616
616
616
610
608
610
736
611
609
606
605
600
600
602
600
722
596
596
588
590
587
586
714
582
584
580
574
572
568
566
564
562
686
558
684
550
550
676
668
668
664
534
530
528
526
522
524
520
518
518
518
514
514
512
506
508
504
504
500
500
496
500
494
494
494
490
492
488
486
484
482
482
480
476
476
480
476
474
472
472
468
464
464
462
462
460
458
456
456
454
452
450
448
448
448
444
446
442
438
440
438
440
434
432
432
432
426
424
424
422
422
416
416
414
418
414
410
412
408
410
410
404
404
400
398
396
396
394
394
392
390
392
387
382
386
384
382
378
374
374
374
370
366
366
364
362
358
358
358
356
354
352
356
352
350
348
348
346
344
344
344
344
342
342
338
340
340
338
336
468
340
340
336
340
340
342
342
344
344
344
344
476
356
488
498
509
406
410
416
422
426
432
440
474
476
486
506
640
662
550
558
566
584
613
622
628
664
670
674
680
705
710
720
726
730
734
740
751
757
760
762
774
904
908
780
780
788
796
798
928
801
928
806
806
810
808
808
810
810
811
810
815
814
812
940
812
816
940
810
812
810
811
812
938
938
810
808
808
810
809
808
810
810
807
804
804
800
804
801
802
799
798
796
796
797
796
796
792
791
790
786
914
782
786
784
783
781
780
779
781
782
780
906
778
777
776
774
771
768
768
766
766
762
762
762
758
756
756
758
754
751
748
748
746
746
744
742
735
740
738
738
734
734
732
732
728
732
728
727
724
720
722
718
716
716
712
713
709
705
706
704
700
702
700
698
696
696
693
692
694
688
690
690
690
688
684
684
682
684
682
676
680
679
674
677
676
674
676
674
672
676
674
672
674
670
670
670
670
672
672
670
672
670
670
676
670
668
671
668
670
668
668
668
670
670
668
668
672
672
670
671
668
670
672
668
668
670
672
672
672
672
674
672
676
674
670
674
676
680
678
674
678
674
676
670
672
670
670
668
670
668
669
668
669
667
664
665
668
664
666
663
663
660
660
660
658
656
658
650
652
654
652
650
646
650
648
644
642
646
644
642
642
638
634
634
634
630
630
628
626
626
626
624
626
624
620
619
620
744
614
612
612
612
610
608
604
602
600
598
590
592
592
588
714
588
584
584
580
574
575
570
570
566
564
564
562
564
558
562
556
556
558
556
556
554
550
550
548
672
546
672
670
540
538
540
538
538
536
534
536
532
658
656
526
526
524
524
524
524
524
524
522
522
648
520
516
518
512
640
514
510
508
504
506
500
500
498
496
492
496
494
490
490
490
488
484
482
482
484
478
476
474
476
470
474
472
470
470
466
468
466
464
462
466
462
460
458
456
456
454
456
452
448
446
450
448
448
447
446
442
442
442
440
440
440
434
434
434
430
434
434
428
430
428
428
428
426
426
422
422
418
418
418
416
410
412
412
408
410
408
406
406
402
404
400
402
400
398
398
396
396
396
396
390
390
390
392
390
390
386
388
388
390
386
390
392
396
396
396
398
402
404
408
412
414
416
422
426
428
432
438
446
447
452
454
460
466
472
476
482
486
492
496
500
506
516
648
526
534
540
672
552
554
562
568
574
580
586
594
724
606
610
618
622
638
648
650
660
662
678
684
686
692
706
713
720
724
726
732
736
740
746
750
750
754
760
764
898
897
772
776
782
910
784
786
786
916
920
795
796
800
930
806
936
809
812
812
812
815
818
819
823
827
824
828
828
826
828
827
830
831
830
828
828
960
828
830
829
830
828
827
826
824
826
826
826
824
824
823
822
822
820
823
820
822
820
817
817
816
818
816
944
816
938
809
812
812
809
806
809
806
809
932
808
801
802
804
804
804
932
926
929
796
796
796
792
798
792
788
788
787
786
786
786
781
912
780
780
778
779
778
778
774
774
772
765
766
766
762
760
756
758
758
754
754
747
750
748
748
746
743
740
738
738
738
736
736
732
734
731
732
730
732
725
724
724
720
722
722
720
718
718
714
714
712
710
706
704
706
700
699
698
698
697
694
694
694
694
693
692
690
694
694
692
688
690
688
688
688
687
690
685
688
686
684
682
684
684
688
685
687
688
684
686
684
684
686
684
685
686
686
686
686
684
684
682
687
686
684
684
684
685
682
684
684
684
682
684
682
680
683
682
684
682
684
680
680
680
682
680
682
678
680
682
680
682
680
682
681
682
678
678
678
678
675
678
674
674
676
672
672
670
674
670
668
666
668
668
666
665
667
664
664
662
664
662
660
660
658
659
658
658
654
654
658
652
650
652
650
644
646
644
642
640
642
642
640
638
636
636
634
634
632
630
630
628
628
626
628
624
626
622
620
618
616
616
612
612
612
610
612
608
608
606
606
602
600
728
596
598
596
592
590
590
586
586
586
586
710
584
578
578
578
576
574
574
570
570
572
684
552
550
546
544
544
540
540
540
538
662
530
534
658
526
524
648
644
514
642
512
506
504
502
500
500
498
500
498
498
496
496
492
490
492
492
490
490
486
484
486
486
484
482
480
480
478
478
476
474
474
474
472
472
472
470
472
468
468
466
464
464
462
462
460
460
458
452
454
456
452
452
452
450
450
450
448
444
444
446
440
442
440
440
438
438
438
436
438
434
430
434
432
430
430
424
426
424
424
422
422
420
418
414
416
416
412
412
412
410
410
406
408
408
406
404
402
400
400
397
396
394
396
394
396
396
394
394
391
396
392
392
390
390
392
392
390
392
393
394
396
396
400
400
402
406
406
410
414
414
420
420
424
428
430
436
440
442
446
448
454
458
460
468
470
476
492
496
500
506
510
644
648
526
530
534
542
548
552
558
566
570
574
580
596
601
604
614
616
622
630
632
636
643
648
652
658
660
672
678
682
686
690
692
694
699
704
706
710
715
718
720
726
728
728
733
734
736
736
742
744
744
748
756
758
756
762
764
763
896
770
771
772
903
778
780
782
784
782
786
788
788
791
790
790
790
794
790
796
794
793
794
794
798
796
798
796
794
793
796
795
794
794
794
792
793
794
794
790
914
920
790
789
788
917
916
788
914
914
783
906
908
908
906
904
904
901
900
765
762
762
762
756
760
757
754
752
746
744
744
746
744
739
738
740
734
732
730
729
724
716
720
716
716
716
714
706
708
700
700
699
690
692
692
688
690
688
686
684
686
684
680
678
680
678
680
678
678
676
678
672
674
674
672
674
672
670
672
672
672
674
670
670
672
670
670
672
668
668
668
667
668
665
666
666
664
665
664
665
666
666
666
666
662
666
661
664
660
664
660
664
663
664
662
662
662
658
660
660
659
658
660
664
658
660
660
658
658
656
655
656
655
654
654
652
652
652
654
648
650
652
648
650
649
652
650
648
648
646
646
644
648
646
646
644
644
644
642
642
642
638
640
638
638
636
638
636
634
636
636
632
630
632
630
630
628
628
622
624
624
622
620
622
619
618
618
618
616
620
618
614
614
612
612
610
608
608
606
602
604
606
606
600
600
600
600
598
596
596
594
590
592
588
588
588
586
584
584
582
578
578
576
576
574
572
572
574
570
568
564
566
562
562
558
558
556
554
554
552
550
548
546
544
544
542
540
536
538
536
534
530
658
526
528
652
652
526
520
522
514
518
516
510
512
508
506
508
506
504
504
502
502
496
496
494
494
492
492
494
488
490
488
488
484
482
482
478
476
474
474
474
474
470
470
472
468
466
464
460
460
456
456
456
454
450
454
452
450
450
450
448
446
444
444
442
438
432
424
422
424
420
422
422
420
420
420
414
416
414
410
410
405
408
408
404
404
404
402
402
398
400
398
397
396
393
394
396
392
394
386
388
386
382
380
380
382
382
378
378
378
370
370
366
368
364
364
360
486
484
488
482
352
354
350
346
338
338
338
462
466
336
332
458
328
328
326
326
324
450
324
452
448
323
448
454
324
452
330
332
334
464
342
472
346
348
354
356
374
374
508
380
386
388
392
398
406
412
416
430
444
446
458
472
480
482
490
492
494
502
506
522
652
656
534
538
672
546
552
682
557
564
568
570
575
578
580
710
602
620
752
622
624
632
632
634
636
636
640
640
642
644
642
646
649
648
650
652
650
652
654
652
654
654
654
654
650
654
654
654
654
658
656
655
654
656
656
656
656
656
656
654
652
655
653
654
654
652
654
652
652
652
652
650
648
646
648
646
644
645
642
644
644
646
642
644
646
648
644
642
642
640
640
636
636
635
636
634
636
634
634
630
630
630
628
628
624
622
622
624
622
620
618
618
614
614
616
612
610
608
608
604
604
604
604
602
600
600
600
590
592
590
590
588
590
714
584
584
584
576
582
580
580
578
706
575
704
572
572
570
574
570
572
566
568
566
562
564
562
564
562
560
558
558
558
554
558
556
554
554
556
552
554
554
550
680
552
548
680
548
548
551
676
550
550
550
680
550
550
550
674
546
548
546
550
546
546
548
546
546
548
548
548
548
550
548
546
672
546
550
552
548
546
548
550
550
676
550
546
546
548
548
546
544
546
544
542
544
542
542
542
542
540
538
540
538
538
540
534
530
528
526
524
524
524
526
526
524
520
650
646
646
516
642
514
512
510
508
506
506
506
504
502
500
500
498
498
496
494
494
492
492
488
490
486
484
482
480
476
476
474
474
472
470
472
468
468
466
462
460
462
460
458
456
456
454
450
452
444
444
442
440
430
428
426
428
428
424
422
418
420
418
418
416
414
408
406
404
398
398
388
390
388
388
382
384
384
384
378
378
376
374
372
372
372
370
368
368
365
364
362
364
362
488
360
490
358
358
358
350
350
348
348
346
342
344
342
340
342
338
468
343
338
340
336
336
334
334
464
330
460
332
330
328
326
458
327
324
324
326
322
450
320
452
320
318
318
316
314
310
310
308
308
310
436
302
304
302
302
425
428
426
304
296
428
298
298
428
300
300
426
304
432
302
304
306
306
304
307
310
314
314
314
316
315
318
326
332
334
340
342
344
484
360
360
362
366
372
376
378
382
388
390
392
396
408
410
414
414
420
432
430
438
438
442
448
450
452
454
460
464
468
468
468
474
476
486
490
490
494
496
500
508
642
644
518
524
524
530
530
660
534
664
536
664
534
540
540
540
540
538
538
542
540
542
540
540
542
542
544
672
544
546
548
546
546
546
542
544
544
672
546
542
542
668
542
542
542
540
540
540
542
540
540
540
538
536
534
534
536
532
536
534
534
532
534
532
530
658
530
526
528
530
524
524
526
522
526
524
522
520
518
516
516
516
514
514
512
642
514
514
640
512
508
510
508
506
506
504
502
504
502
500
498
498
498
498
494
496
494
492
492
490
490
488
488
488
486
482
486
482
480
482
478
482
476
476
474
474
474
476
472
470
470
470
468
470
468
470
468
466
468
466
466
464
462
464
460
464
464
462
464
464
462
462
460
460
460
462
462
462
462
462
460
460
460
460
462
462
458
460
460
458
462
462
460
460
460
458
460
460
462
460
462
460
460
460
460
460
460
462
458
460
458
460
458
460
458
460
458
458
460
460
458
458
458
458
460
456
456
460
458
458
456
454
456
456
456
454
454
454
454
454
452
450
452
450
448
448
450
446
446
442
444
442
444
440
440
440
442
442
440
438
440
438
438
434
434
434
434
434
432
430
427
426
426
426
424
424
418
422
420
422
420
420
418
422
416
418
416
414
412
410
410
408
406
402
400
398
396
398
396
394
394
394
394
392
392
390
392
392
390
388
388
384
384
384
384
384
382
384
380
384
378
380
378
376
376
376
376
374
370
370
370
368
366
366
366
364
362
362
360
360
356
356
354
352
480
352
347
348
345
344
472
342
342
340
464
334
342
336
332
332
332
332
328
328
454
326
326
324
324
318
318
318
319
316
316
314
316
314
314
312
312
310
306
304
434
302
304
304
304
302
302
300
300
296
302
293
422
424
290
292
289
292
416
286
286
286
412
282
278
278
276
276
276
272
270
270
269
270
268
268
268
267
265
264
264
260
260
254
388
258
384
254
254
254
250
254
249
248
250
246
244
244
244
244
242
241
240
240
240
240
238
236
236
233
232
232
232
234
232
231
230
232
228
228
225
224
228
222
224
222
220
220
218
218
218
218
216
216
216
212
214
212
212
210
208
208
207
206
204
206
200
200
198
199
200
199
202
198
200
198
200
199
200
206
206
204
205
206
222
230
234
238
242
242
246
248
254
256
258
264
394
270
274
284
290
418
292
298
302
306
312
314
442
322
324
338
342
344
352
352
358
360
366
370
374
374
380
380
390
400
404
400
408
410
420
422
424
432
432
438
436
446
448
458
460
458
460
464
464
466
466
470
472
470
472
476
476
478
480
478
488
484
488
488
490
492
494
492
492
492
490
494
494
492
492
494
492
492
490
492
492
492
488
490
488
486
486
492
486
486
486
482
484
484
482
482
470
472
468
462
470
462
460
462
464
464
462
460
462
460
460
458
458
454
454
454
450
452
452
448
450
444
448
447
444
446
443
446
442
442
442
440
438
440
442
438
440
440
438
438
436
438
440
440
438
438
436
440
438
436
434
436
436
436
436
434
438
434
438
436
438
436
436
434
432
432
436
432
432
430
432
428
432
432
430
430
432
428
426
428
428
426
426
428
428
428
428
426
426
424
424
422
422
422
424
422
422
422
416
416
418
416
414
416
416
413
412
414
412
410
412
410
412
412
414
408
410
412
410
410
408
402
408
406
404
406
402
402
404
402
404
400
402
398
398
398
396
394
394
394
392
390
388
388
388
384
386
384
380
378
380
380
378
378
376
378
374
376
370
372
368
366
366
366
360
488
488
362
483
480
350
474
346
342
464
338
460
334
331
460
326
328
322
320
448
438
310
434
304
300
428
300
298
300
300
296
296
422
294
292
418
292
416
416
416
286
284
284
282
408
280
278
278
404
279
278
278
408
278
404
276
274
274
400
270
269
268
270
396
394
396
266
267
266
392
392
266
263
392
264
392
260
388
261
258
256
256
258
256
253
254
384
252
250
252
250
252
248
248
250
246
250
246
246
246
244
244
244
246
240
240
238
238
240
236
236
235
238
234
232
236
235
236
232
232
232
230
232
226
228
226
224
226
224
226
222
218
220
218
216
214
214
212
214
210
210
209
206
202
208
204
202
202
200
202
200
199
200
200
200
198
200
200
202
200
202
202
200
203
204
212
214
216
218
226
228
232
238
238
251
252
254
264
266
392
268
276
278
408
286
290
292
298
303
436
310
316
322
328
458
334
338
342
344
350
364
366
370
384
390
392
398
402
406
412
416
424
430
434
438
442
444
446
450
456
460
462
464
468
468
474
476
478
482
484
486
488
488
492
492
496
496
498
502
502
502
508
508
510
508
512
514
516
514
512
518
520
516
518
648
646
520
522
520
520
524
524
522
650
524
652
524
524
526
652
523
524
524
524
652
526
654
526
524
526
652
526
526
524
652
524
522
526
522
652
650
524
522
522
520
522
522
520
640
516
518
518
514
642
514
514
512
514
514
640
514
640
512
640
508
508
508
506
502
500
504
500
502
500
504
502
500
500
496
500
500
496
496
494
494
496
496
496
492
492
492
492
496
492
490
492
488
490
488
488
488
488
490
484
482
486
478
480
478
478
478
478
478
478
476
478
472
476
474
476
472
474
472
472
474
474
470
472
472
470
470
468
468
466
466
466
462
462
462
466
460
460
460
462
462
460
460
460
458
460
460
462
458
458
460
460
458
458
458
458
456
454
458
456
458
456
454
456
452
452
454
454
452
452
454
454
456
452
452
456
452
452
448
448
450
448
450
448
452
448
448
447
448
446
448
446
446
446
446
446
444
446
446
444
444
444
442
442
442
442
442
440
440
440
440
438
438
436
434
438
436
436
434
434
432
432
436
432
430
432
434
428
430
428
428
426
428
422
420
418
420
418
416
414
412
412
414
412
410
408
406
404
404
404
406
404
402
402
400
398
398
400
394
394
394
392
388
388
387
384
384
378
382
380
378
380
378
374
374
374
374
374
372
372
372
370
368
366
366
364
362
360
362
360
356
356
354
354
352
350
352
350
350
346
346
344
345
346
342
338
340
342
338
338
338
336
336
336
338
334
338
333
336
334
332
330
330
330
328
330
328
328
328
326
324
326
326
326
324
322
321
320
322
448
314
316
316
316
316
314
310
316
314
312
312
312
314
310
310
310
312
314
310
312
440
312
310
306
310
310
306
310
304
304
306
300
302
302
302
300
302
298
300
298
296
298
294
294
292
294
290
294
292
292
292
292
292
292
290
416
288
288
288
284
290
286
286
284
284
284
284
282
280
280
280
278
280
280
278
278
278
278
278
276
404
402
402
278
274
270
400
270
262
264
264
262
262
260
386
384
256
260
384
386
252
248
248
250
245
243
246
248
242
244
242
240
240
240
240
240
237
236
236
232
230
230
232
226
226
224
226
222
224
221
220
221
218
217
220
214
218
216
212
214
210
208
206
206
202
202
200
198
199
198
196
197
196
196
194
192
192
196
198
202
200
211
214
218
220
232
242
246
246
250
252
384
264
266
400
274
278
282
287
286
292
296
298
432
318
328
330
334
340
480
356
488
493
370
390
394
398
410
416
420
422
438
442
446
472
474
482
484
500
504
508
512
512
642
516
518
524
524
656
654
656
532
534
656
660
532
528
528
528
526
658
526
526
528
528
656
526
526
526
526
522
652
650
524
522
650
648
648
518
520
520
518
516
518
516
516
514
514
510
640
510
508
504
504
500
504
500
498
498
498
500
496
494
494
494
496
494
494
492
492
490
488
486
484
482
476
478
478
476
476
470
466
466
468
472
466
468
470
466
466
462
460
458
456
458
456
454
458
458
454
454
454
456
454
458
454
456
450
454
452
452
454
454
452
448
450
450
446
448
444
444
448
450
447
446
446
447
446
447
447
448
447
447
446
446
447
448
446
444
444
448
448
447
446
444
444
444
440
444
440
440
438
436
438
436
438
438
438
436
434
434
436
432
432
430
434
430
432
428
430
428
428
428
428
430
428
426
428
424
426
426
426
424
420
420
416
416
416
416
414
414
412
410
410
410
410
406
406
406
406
406
400
402
400
398
396
394
394
394
392
394
392
392
386
386
386
380
380
376
376
374
370
370
368
366
366
364
364
364
362
360
361
358
360
358
356
356
352
352
354
354
350
352
350
350
348
352
480
346
346
346
338
338
338
462
464
460
326
330
328
323
452
452
449
324
320
320
320
320
320
318
318
318
317
318
314
314
310
312
312
312
310
312
312
310
308
308
434
301
430
302
302
298
426
424
296
294
420
424
294
290
416
420
288
290
282
284
286
280
278
280
280
404
404
404
274
272
270
268
274
268
270
394
268
268
264
392
260
386
258
254
254
252
252
250
246
248
248
250
248
250
248
248
250
250
248
250
248
248
250
248
250
250
252
251
254
384
252
256
260
390
392
269
266
270
274
272
276
282
412
286
290
420
300
432
458
333
342
346
348
348
356
360
362
370
368
502
508
384
408
412
416
420
424
428
432
436
446
454
460
460
462
470
470
474
478
486
492
494
498
502
504
508
514
516
518
520
520
524
526
526
658
534
536
536
540
542
544
542
544
550
550
552
552
554
554
554
558
556
558
560
562
562
564
566
694
564
568
566
566
566
564
566
566
568
696
566
562
568
566
568
571
564
566
568
562
692
562
562
690
560
560
686
558
562
558
562
558
558
556
554
554
556
550
552
552
550
550
550
676
542
546
540
542
542
538
540
540
534
532
530
528
660
656
526
524
522
646
648
644
518
518
646
644
516
642
512
506
508
508
506
504
502
502
506
500
500
500
498
498
496
494
492
490
486
490
489
492
488
488
484
486
480
484
484
480
484
480
478
482
482
480
480
484
480
478
480
482
480
480
482
480
480
484
484
482
482
478
482
482
480
480
482
482
480
480
480
480
480
482
484
480
480
484
484
484
482
486
484
484
488
486
486
486
488
488
488
488
488
488
486
486
488
486
488
490
490
490
492
492
490
490
490
494
490
490
492
488
486
486
490
488
486
488
484
482
482
480
482
480
478
476
474
472
474
470
470
472
472
470
468
468
466
464
460
462
460
460
460
450
446
448
444
442
440
436
430
430
420
418
416
416
412
412
410
408
408
404
404
400
398
398
396
397
392
396
394
392
392
386
388
388
380
378
376
377
373
500
376
374
368
364
366
366
366
364
490
358
360
354
354
348
346
344
338
334
336
332
332
332
460
328
326
324
324
319
322
322
319
319
317
318
318
318
316
316
318
316
316
314
314
312
310
312
436
432
432
432
302
302
432
300
426
300
298
428
300
300
426
298
426
426
296
426
292
292
293
418
416
289
286
289
288
286
286
286
282
282
282
282
280
282
280
278
404
400
270
268
394
266
268
259
258
254
250
252
248
247
246
244
244
242
242
238
234
234
232
234
234
230
230
226
226
228
228
226
230
234
234
234
234
242
240
248
248
254
256
262
268
400
276
276
286
284
290
294
298
303
316
320
319
328
330
333
337
470
344
350
356
358
364
368
372
380
396
398
400
408
410
414
422
420
428
432
436
442
447
454
456
460
462
470
474
476
482
486
488
492
498
502
504
508
514
518
520
524
526
530
534
538
542
546
544
546
680
552
556
556
558
562
562
566
566
573
570
574
574
574
580
576
578
580
582
584
586
588
586
588
587
592
592
590
598
596
596
598
598
598
600
598
599
602
600
594
726
722
596
596
594
594
722
594
592
592
590
594
590
588
592
590
590
590
716
588
588
590
588
588
586
586
714
710
582
706
580
706
706
704
576
574
574
571
696
572
570
570
566
566
566
564
558
564
690
560
558
684
556
556
552
554
550
552
552
548
550
542
540
540
540
536
536
532
532
530
528
528
524
524
523
522
518
516
516
644
514
514
512
508
508
506
508
508
504
500
496
500
494
500
500
494
490
494
492
486
482
488
484
484
484
484
484
482
482
482
482
484
482
482
480
480
478
480
478
478
480
478
480
478
478
476
480
478
480
480
480
478
482
482
478
478
478
482
480
480
478
478
480
478
478
480
478
476
478
478
478
472
476
474
476
476
476
476
474
476
476
476
476
476
478
476
474
472
476
472
470
472
472
472
466
466
466
464
464
462
462
460
456
458
452
452
452
450
450
450
448
447
446
446
446
446
444
442
440
442
442
438
440
436
435
434
436
432
432
430
430
428
426
428
428
424
424
424
420
419
420
418
416
416
412
412
412
414
412
409
408
406
406
402
398
400
400
398
398
394
394
390
390
386
382
380
382
380
376
376
376
372
374
370
370
368
364
360
358
358
356
354
350
350
350
348
346
344
342
342
342
338
340
338
334
336
464
334
332
332
456
330
327
326
328
326
454
450
324
322
318
318
318
316
314
311
310
311
436
309
307
306
304
304
306
300
302
302
302
301
302
302
296
300
300
300
300
298
296
424
418
420
408
278
280
278
277
406
402
402
400
272
398
400
268
266
268
264
267
396
268
266
266
264
266
263
266
262
261
259
256
385
258
254
252
250
250
246
245
246
244
238
238
238
238
238
234
231
226
226
226
221
217
220
218
216
214
216
216
214
216
214
218
222
218
219
222
225
226
228
232
240
242
242
248
250
251
385
404
294
312
320
322
324
330
466
342
344
352
358
362
366
370
379
386
390
396
400
406
414
418
424
430
434
438
444
447
460
468
490
492
500
500
510
510
520
522
526
530
534
536
542
672
548
552
556
558
558
566
566
568
578
578
582
712
710
716
590
592
596
594
726
600
602
598
602
606
606
604
606
608
610
612
606
612
614
614
616
614
614
614
614
614
615
614
614
616
612
614
614
614
614
608
612
612
612
608
610
610
606
606
610
606
606
606
606
606
606
608
606
602
602
601
600
600
600
598
596
598
596
594
592
595
590
594
722
592
590
588
588
586
586
584
582
586
586
582
712
582
576
578
576
575
580
576
575
574
574
570
574
572
570
568
570
566
566
564
566
560
562
560
558
556
554
554
554
550
548
548
548
550
542
670
542
540
538
536
536
534
534
534
532
528
526
528
526
522
652
522
650
520
522
520
520
518
516
516
514
512
510
640
514
512
510
510
510
506
504
506
508
508
504
506
504
504
502
502
502
502
502
500
502
500
502
502
500
502
504
506
504
502
500
504
504
502
504
506
504
506
502
506
508
506
506
504
506
502
502
504
502
504
504
502
502
506
504
502
498
502
504
504
498
504
502
502
502
500
500
500
502
502
502
502
500
502
502
498
500
498
500
496
498
494
492
494
496
494
492
492
494
492
494
492
492
492
492
488
490
490
489
488
484
488
484
484
478
482
484
482
482
482
478
478
478
478
472
476
474
472
472
472
472
468
470
470
468
466
464
464
464
462
460
460
458
458
456
454
452
450
450
450
448
446
448
445
446
444
444
440
438
436
436
430
428
430
428
428
426
426
427
426
424
422
420
420
420
416
414
414
414
412
412
412
408
404
406
406
404
404
402
402
398
398
398
396
396
392
390
390
388
386
388
386
382
378
380
378
378
376
374
372
374
370
370
368
368
364
364
366
366
364
362
360
358
360
358
354
354
350
350
348
464
470
464
462
334
332
330
332
332
455
328
326
326
326
454
324
448
324
324
324
322
322
320
324
318
316
320
316
314
310
310
436
308
436
434
434
304
302
430
428
428
426
300
424
296
293
296
292
294
420
292
290
288
285
288
286
286
284
282
284
278
280
280
276
274
276
273
272
274
270
270
271
270
269
268
268
265
392
264
263
386
388
256
256
256
258
254
254
250
250
248
248
246
246
244
242
242
240
239
240
236
240
238
236
236
234
230
230
226
228
226
225
224
222
222
219
216
219
218
218
217
218
220
218
220
220
222
220
228
227
230
231
234
236
235
237
240
244
246
254
258
261
262
274
278
284
288
294
298
304
312
314
316
324
328
330
342
350
356
358
362
370
374
380
388
390
400
404
406
412
420
422
428
434
440
444
448
456
470
474
480
484
490
508
508
514
516
650
526
532
534
668
546
548
554
556
558
564
570
570
574
576
580
708
711
584
588
590
594
594
598
600
603
602
602
606
610
610
610
614
614
616
616
618
618
622
621
622
622
620
621
626
627
624
624
626
626
626
628
626
628
626
626
622
624
626
626
624
624
628
626
627
626
628
754
626
626
752
628
624
626
626
624
622
624
622
616
746
618
618
618
614
616
618
612
616
614
612
612
612
612
612
606
608
608
606
606
604
606
606
600
602
602
602
600
602
598
598
728
600
596
596
596
718
590
590
590
716
584
586
584
582
582
704
578
578
574
574
572
568
570
696
568
564
564
562
564
558
558
554
554
554
552
680
552
552
680
548
550
548
674
544
544
546
546
542
542
542
538
540
540
540
540
536
536
538
538
536
664
534
536
536
540
532
532
530
534
534
532
530
528
526
528
530
532
530
532
530
528
532
532
532
532
534
532
530
530
532
534
532
528
532
530
530
530
530
530
526
528
528
656
528
526
528
528
526
526
524
526
526
524
654
524
524
525
526
528
526
524
654
524
524
652
524
526
526
524
521
522
654
522
524
522
652
520
648
646
522
520
644
648
642
518
518
516
514
514
516
512
510
640
514
510
506
508
508
508
506
506
506
502
504
498
498
498
496
498
494
498
492
494
490
492
490
486
488
490
484
484
482
482
482
480
478
476
474
474
472
474
472
470
470
470
466
464
464
462
458
460
460
458
456
452
452
452
448
448
444
444
444
444
440
434
436
434
432
432
428
428
426
426
422
424
422
422
418
416
416
414
418
412
410
414
410
410
408
408
406
404
400
402
396
396
396
396
396
392
394
394
390
390
388
390
386
384
386
384
388
382
382
382
386
380
382
380
378
380
380
378
376
376
376
374
374
374
372
372
370
370
368
370
496
368
366
362
362
362
364
364
364
364
360
360
360
362
356
358
358
358
356
358
356
354
354
350
354
349
480
350
350
350
350
348
346
346
474
344
342
340
340
334
340
334
334
332
330
328
456
452
454
324
323
324
322
324
318
318
316
316
316
316
316
318
312
314
314
316
314
312
312
311
312
310
310
436
308
310
308
306
304
310
306
306
434
436
306
306
310
440
312
314
312
316
314
318
318
318
320
318
454
328
330
334
342
348
360
362
368
382
384
398
402
406
406
412
420
424
424
432
436
442
444
452
454
458
466
472
476
480
482
492
496
500
506
512
642
520
526
530
534
540
542
676
552
688
688
692
698
572
574
580
712
590
594
728
600
610
622
628
632
634
638
638
642
646
648
658
658
662
668
668
666
668
670
670
674
674
678
678
680
680
680
678
680
680
676
678
680
680
678
680
678
678
678
678
676
676
678
676
674
672
672
671
668
668
668
668
666
666
666
668
666
662
662
662
660
660
658
656
652
654
652
652
650
646
646
644
642
644
641
638
638
636
634
630
632
752
748
618
746
614
612
612
610
736
606
610
608
606
604
602
602
602
598
594
590
590
586
584
582
580
578
575
575
706
574
570
572
568
568
566
566
568
694
562
564
568
566
564
564
562
690
560
560
558
560
560
558
560
558
560
560
560
560
562
558
558
562
562
560
562
562
562
690
558
562
688
560
560
562
560
690
560
694
562
562
562
562
564
560
562
564
560
560
560
560
558
558
556
688
558
560
560
560
556
558
554
556
556
556
554
554
554
552
554
550
552
552
680
548
550
550
548
546
674
544
542
544
544
542
540
540
538
540
540
536
664
534
536
660
532
532
532
530
530
528
526
526
524
526
524
522
522
648
644
522
516
640
514
514
640
512
504
502
504
498
498
486
484
482
484
480
480
478
474
476
474
472
470
472
470
470
468
464
462
462
460
460
460
456
456
456
456
452
452
452
454
452
454
452
448
448
450
448
450
444
436
436
438
434
434
432
432
430
432
426
428
428
426
424
422
424
424
422
418
416
414
412
414
414
412
412
408
408
404
406
402
404
400
400
402
396
396
397
396
394
394
394
390
390
392
388
386
386
384
384
382
382
380
382
380
380
378
376
504
370
370
370
368
366
366
364
362
364
488
362
356
358
352
350
352
350
352
348
348
476
346
344
342
342
340
334
334
338
334
336
334
332
332
330
328
456
328
456
326
454
324
324
322
326
326
324
324
324
324
450
326
324
326
326
328
326
330
336
338
340
346
346
350
350
354
358
360
364
366
370
372
376
380
382
386
390
396
396
402
406
410
412
418
426
430
434
438
442
448
454
458
460
466
474
474
484
486
488
494
500
506
508
644
520
526
532
660
540
546
572
576
578
586
588
600
606
610
614
620
752
640
642
650
658
658
662
662
666
668
668
680
680
682
684
690
694
694
696
698
698
696
700
702
703
702
702
703
703
704
702
700
702
700
702
703
704
702
700
699
700
700
696
695
696
692
692
692
690
687
688
686
686
686
688
686
686
686
684
682
682
683
678
682
676
678
680
674
676
674
672
672
672
667
670
669
668
664
666
664
664
662
664
662
660
662
658
658
656
656
656
652
650
652
650
648
648
642
642
642
644
640
640
636
638
638
638
634
632
634
630
628
628
626
628
630
626
624
624
622
622
617
618
614
612
740
610
608
608
606
610
606
606
604
604
602
606
600
602
598
602
602
600
602
598
598
596
596
596
594
594
596
594
720
592
592
588
590
590
588
588
588
714
584
586
586
586
586
588
584
718
586
586
586
714
712
582
712
580
582
582
582
710
710
710
578
582
710
580
582
578
578
704
576
706
575
704
576
574
574
574
572
572
574
572
572
572
570
568
700
696
568
696
566
566
564
566
690
562
562
560
558
556
684
556
554
552
554
680
550
676
544
548
542
542
542
540
538
536
664
532
534
658
656
658
526
656
524
524
524
520
648
520
642
516
644
640
510
512
508
502
504
502
500
500
494
496
494
494
494
492
488
488
486
490
484
484
484
482
480
482
478
476
476
474
472
474
472
470
472
470
468
468
466
466
466
466
464
460
460
456
458
456
454
456
454
450
450
454
450
444
446
446
444
446
440
440
440
442
440
440
438
436
434
434
436
434
430
434
434
432
430
426
428
428
426
428
428
426
426
424
422
424
420
422
420
416
418
416
414
414
416
414
414
414
414
412
412
410
412
414
410
412
410
412
410
410
412
411
412
410
410
410
408
410
408
408
410
410
408
408
406
402
402
400
402
402
400
400
400
398
397
398
398
398
396
394
396
394
396
394
392
392
390
388
392
388
386
388
386
384
386
386
386
381
380
381
380
384
382
382
380
382
382
378
378
380
378
376
376
376
376
370
372
374
372
370
374
374
374
376
374
374
376
376
378
378
378
378
376
380
382
380
384
386
388
390
394
392
396
396
402
406
408
410
414
416
420
424
428
432
436
438
446
454
460
466
478
484
500
508
508
516
522
526
530
540
540
550
554
558
566
570
574
579
586
590
594
600
604
610
615
620
630
631
634
640
644
650
656
660
660
666
670
676
680
684
688
694
698
698
702
704
712
712
714
718
720
722
723
730
730
733
740
738
740
742
746
752
752
756
760
756
760
758
762
760
763
762
760
764
766
766
767
768
766
764
896
768
766
766
896
766
770
764
768
768
768
766
765
766
766
766
896
764
760
763
763
758
760
762
760
758
758
757
758
756
756
756
754
756
752
754
754
752
752
753
750
754
752
748
748
746
748
746
748
746
746
742
744
744
742
742
740
742
740
742
738
734
738
736
736
734
730
730
725
727
726
724
723
722
720
720
720
718
716
716
716
713
714
712
714
711
710
710
710
708
707
702
703
701
702
700
698
700
696
698
698
699
696
696
698
696
698
696
692
692
688
692
692
691
692
686
690
687
686
686
688
684
688
682
682
680
682
680
680
676
676
674
676
676
670
678
675
676
672
672
670
668
669
666
670
666
666
670
664
668
666
666
664
664
664
658
658
660
660
653
652
654
652
652
650
648
648
646
644
644
644
638
638
640
636
636
636
632
630
630
626
626
626
624
622
622
620
621
618
616
616
612
612
612
606
606
736
606
602
602
726
598
596
592
594
592
592
592
590
590
714
588
586
586
714
585
582
582
580
706
574
574
574
570
570
558
558
554
554
554
554
554
554
548
548
548
546
548
548
672
542
540
540
540
536
536
532
532
528
530
528
528
526
526
526
524
524
524
652
522
520
522
518
518
516
516
640
508
512
508
506
508
504
506
506
506
502
502
500
500
500
500
498
496
500
494
496
498
492
490
494
492
490
486
484
486
478
480
480
478
480
478
474
478
476
476
474
472
474
472
468
468
464
464
462
460
458
458
456
456
456
454
452
452
452
450
450
450
444
444
445
440
444
440
440
434
434
434
432
430
428
428
430
428
428
426
428
424
422
420
422
420
418
414
416
414
412
410
410
406
406
408
406
404
404
400
398
402
398
396
398
394
392
392
390
390
388
386
390
390
386
386
388
392
392
394
398
396
400
400
404
402
408
410
410
414
414
420
424
428
428
434
440
444
445
450
452
464
476
484
502
500
506
640
644
532
664
668
564
572
574
578
586
590
594
598
606
612
614
622
628
632
636
640
646
648
654
662
664
666
672
679
682
688
692
692
700
698
708
704
711
714
714
717
722
725
726
728
734
734
742
738
742
741
748
747
750
752
754
758
760
762
760
761
760
762
761
762
764
764
766
766
766
766
768
764
896
764
768
764
763
766
765
764
764
764
764
762
762
764
764
764
764
766
762
762
762
760
760
760
758
755
756
758
757
756
752
752
752
752
754
750
752
750
748
752
748
746
748
746
746
746
746
742
742
740
740
738
739
738
736
736
732
736
731
731
730
726
726
720
720
720
718
720
714
712
708
708
706
707
704
704
702
700
698
698
692
694
694
688
686
686
684
680
676
678
674
671
670
668
668
662
662
662
659
658
656
656
652
652
650
650
648
644
642
640
642
640
642
636
638
636
636
636
634
634
631
632
630
630
630
628
630
628
628
626
626
624
628
626
626
622
624
623
622
626
618
622
622
620
618
622
619
620
618
616
620
618
620
616
614
618
616
617
616
618
614
617
614
744
616
614
612
614
740
610
742
615
612
612
612
612
612
740
608
612
606
606
606
604
604
604
602
602
602
730
601
600
594
598
724
596
594
590
590
588
704
704
702
574
572
570
571
692
688
562
560
684
688
684
550
682
672
546
544
542
540
536
534
664
530
528
524
525
524
650
650
522
644
514
640
642
510
504
504
500
500
498
496
498
496
494
490
490
488
484
484
484
482
476
474
474
472
472
470
470
468
466
464
462
464
464
464
458
456
454
450
452
448
447
446
446
442
440
438
434
430
434
434
434
430
428
426
426
426
426
426
424
422
418
414
414
414
408
408
406
410
404
402
404
400
398
398
396
388
381
382
380
380
380
376
380
502
502
372
500
370
366
364
366
364
360
358
488
358
358
356
356
484
356
356
358
484
356
357
486
362
358
362
364
368
370
374
504
378
380
382
386
388
392
396
400
402
402
408
414
416
420
424
430
436
440
440
456
462
464
472
478
480
486
490
496
500
502
508
516
522
526
530
664
542
546
552
568
574
588
592
726
602
606
614
618
748
624
626
632
636
650
654
656
662
661
666
674
682
689
694
696
696
698
700
700
702
704
710
712
712
712
716
718
718
718
718
719
722
716
720
718
720
724
718
722
722
720
721
718
720
719
720
716
718
712
712
710
712
710
712
708
706
708
706
704
704
702
704
702
702
700
700
696
693
686
688
686
684
678
662
664
660
658
658
656
654
648
644
644
642
636
636
636
762
632
632
630
626
626
624
620
620
618
616
616
610
610
610
610
608
608
608
603
604
728
600
598
598
594
598
594
590
588
590
588
586
584
712
584
710
580
578
575
706
706
574
574
702
574
572
572
574
572
570
570
568
566
570
570
568
566
570
572
570
570
570
568
572
572
572
574
572
572
574
572
572
574
572
571
572
574
573
574
574
572
574
574
575
574
574
574
575
574
574
578
573
574
574
576
575
574
576
575
573
574
574
574
574
572
570
572
571
570
572
570
572
569
568
568
566
564
562
558
564
688
688
558
558
558
558
554
556
554
552
552
550
676
550
550
550
548
546
544
540
540
540
538
534
538
534
534
536
530
532
530
530
526
526
650
650
518
642
510
508
508
508
500
500
500
500
498
500
494
496
494
496
494
492
492
490
490
490
488
486
488
484
486
486
486
482
482
484
480
476
478
475
474
472
476
472
470
472
470
468
464
462
462
462
460
460
456
458
452
452
452
448
447
444
446
444
438
442
436
438
436
432
432
426
424
424
422
420
416
416
406
404
402
400
402
404
402
398
390
390
389
386
386
382
384
384
378
376
374
374
374
374
374
372
372
370
368
366
368
366
366
362
360
360
358
356
359
356
356
356
354
352
352
352
354
349
348
346
348
344
344
342
342
344
342
337
334
336
334
333
334
464
330
460
456
326
324
326
324
452
324
322
448
322
318
318
320
448
318
318
318
318
316
316
318
318
318
316
318
320
320
322
322
326
328
328
329
336
336
342
342
346
350
352
358
358
366
366
372
374
378
381
388
392
396
400
408
412
414
420
424
430
436
442
446
450
456
460
466
472
478
482
486
494
500
504
520
524
656
536
540
544
676
556
560
564
570
574
708
584
588
596
600
604
624
756
632
634
638
642
642
652
660
663
664
666
670
670
670
674
674
679
680
682
684
684
688
690
688
688
692
688
690
692
694
692
694
692
692
694
693
694
692
694
694
692
690
692
692
690
690
694
692
692
692
687
690
690
688
687
686
686
686
688
686
684
686
684
682
682
684
678
681
682
676
674
674
668
668
670
668
668
668
664
666
668
664
662
662
662
663
662
660
658
658
660
656
656
650
650
648
645
642
638
634
636
634
632
630
630
630
626
626
626
620
620
616
614
616
616
614
610
612
612
610
604
606
604
602
604
600
599
598
600
596
598
597
600
596
722
596
590
594
590
586
590
590
590
716
586
587
586
584
586
714
582
582
708
580
708
582
580
580
580
584
708
578
578
580
705
578
576
704
575
706
704
578
576
575
574
574
575
572
572
572
572
574
572
574
574
574
572
572
572
570
572
572
574
570
570
700
570
568
568
570
566
566
568
566
568
568
566
562
566
562
560
560
560
558
562
562
556
558
554
556
554
554
556
552
552
550
548
550
676
546
546
544
542
540
540
540
540
538
536
536
536
536
532
532
530
530
526
530
528
526
526
528
526
524
522
520
520
648
514
514
640
508
506
506
506
506
504
502
500
502
500
498
498
498
494
494
492
488
488
490
488
486
484
482
480
482
478
478
474
476
472
474
470
468
466
468
470
466
464
466
462
458
460
458
456
456
452
456
452
452
450
448
447
448
444
442
442
436
434
434
434
428
430
428
428
430
414
414
410
410
408
408
406
404
404
400
396
394
392
388
390
388
384
374
374
372
372
370
370
372
370
366
364
366
366
366
360
362
360
359
358
358
482
352
350
482
348
344
344
472
344
342
340
338
338
466
338
334
334
334
336
334
333
330
330
330
326
458
328
324
328
328
322
323
448
448
318
318
316
444
314
314
440
314
312
312
310
311
308
436
308
436
302
304
306
306
299
426
424
298
298
426
300
425
428
298
428
424
302
302
306
312
316
316
319
322
450
326
328
332
334
340
342
348
350
356
358
364
370
376
380
384
390
396
402
400
408
416
420
426
430
438
444
450
456
460
466
472
478
486
486
496
502
506
640
518
522
528
532
668
546
550
558
564
582
710
716
614
744
636
642
646
656
660
663
666
670
674
680
686
700
700
704
706
706
707
708
712
712
714
712
718
716
718
720
718
722
717
720
720
720
721
720
722
718
720
716
720
718
717
718
720
716
716
716
716
716
713
711
710
714
708
706
706
708
706
706
704
702
704
700
702
700
700
698
696
700
698
694
695
692
692
692
690
690
692
688
688
688
686
684
684
682
672
674
674
668
670
668
666
664
662
662
653
650
648
644
640
633
632
630
628
626
628
622
622
622
620
620
618
618
744
614
614
612
610
610
608
610
608
604
598
600
596
594
592
594
592
590
718
588
584
714
586
588
712
580
708
582
580
706
578
574
704
706
578
574
576
574
704
574
572
572
570
574
570
572
570
572
574
570
568
574
572
574
570
572
570
570
569
568
570
572
568
570
572
569
570
570
568
568
566
696
564
564
566
562
566
562
562
692
558
558
556
686
682
552
682
550
550
548
678
548
548
546
546
548
544
542
540
542
538
534
536
532
532
530
532
528
528
526
524
524
522
522
518
518
512
516
510
508
508
506
504
502
502
500
500
500
498
494
494
494
490
490
490
486
484
484
480
480
478
474
472
470
466
466
466
466
462
461
462
454
454
454
447
446
444
444
442
442
442
442
438
436
432
432
432
428
426
424
422
420
422
422
412
410
408
406
406
406
398
402
398
394
394
396
392
388
388
388
386
388
382
380
380
376
376
376
376
376
372
372
368
368
368
364
364
362
358
358
354
358
356
352
348
350
346
346
346
344
344
340
464
464
336
460
330
330
332
326
452
328
326
322
324
324
320
320
318
318
316
315
314
310
308
314
308
438
303
432
304
304
302
302
290
286
418
287
286
286
284
284
410
280
282
282
278
276
275
274
276
402
274
270
276
270
400
400
268
271
400
268
266
268
264
262
260
260
260
258
387
258
259
384
384
254
384
254
256
252
252
250
249
250
248
248
246
244
244
241
246
244
243
242
242
242
242
240
236
237
240
236
235
236
234
234
236
234
233
233
232
236
236
234
238
239
240
246
244
248
248
252
250
384
386
390
266
270
272
274
278
281
288
294
423
300
303
310
312
318
324
458
334
340
345
348
350
360
362
368
374
380
388
392
394
414
418
424
430
436
440
446
452
456
460
468
474
474
484
488
494
498
502
516
522
656
532
536
538
546
546
550
554
558
566
570
572
578
578
586
590
594
594
728
606
612
612
614
618
618
620
620
624
624
630
628
630
634
634
636
634
636
764
638
637
636
638
637
636
640
646
642
640
636
640
638
640
636
638
638
634
636
636
634
632
632
630
634
632
630
631
632
630
632
633
630
634
634
628
626
626
624
624
622
622
622
624
624
624
620
620
620
617
618
616
616
616
614
608
610
606
606
602
602
600
602
598
598
598
598
594
592
722
590
590
590
588
588
586
714
584
710
708
578
582
578
708
575
576
704
574
572
572
570
568
570
568
566
564
564
560
564
562
564
560
562
562
560
558
558
558
556
556
556
554
558
555
550
550
552
678
548
550
548
548
678
546
548
676
548
548
544
546
542
544
540
542
544
670
546
544
542
674
542
672
544
546
546
546
546
542
544
674
546
540
542
542
542
542
672
670
668
540
672
668
540
540
534
532
534
662
532
532
530
656
524
526
524
524
524
522
522
522
650
518
520
520
520
514
512
512
508
508
506
508
504
504
502
502
500
500
498
492
496
494
494
490
490
490
490
490
488
486
486
482
486
478
482
480
480
476
476
476
474
474
468
470
468
468
466
464
464
462
462
460
458
460
458
454
456
456
456
456
448
448
446
446
444
444
442
442
440
440
438
436
432
434
432
432
428
426
424
424
422
422
420
420
420
418
416
416
418
410
408
406
404
404
406
402
398
398
394
394
392
390
388
387
386
382
380
378
376
376
370
372
372
372
370
496
366
368
366
364
364
366
364
362
362
362
360
358
358
358
356
356
351
352
350
348
348
346
346
344
472
338
342
468
338
333
460
334
330
332
330
330
330
330
458
456
324
324
324
448
322
452
320
320
318
318
316
316
444
314
308
308
308
307
311
307
308
306
302
302
300
302
296
298
300
296
426
428
296
294
292
292
293
416
290
288
286
286
284
284
282
282
406
280
406
274
404
404
404
404
402
402
278
408
282
408
408
414
420
295
299
298
426
434
314
316
326
350
358
360
400
406
410
416
420
422
456
460
472
474
478
482
486
498
498
502
504
508
640
644
524
526
658
658
662
674
546
678
680
562
562
568
564
568
568
570
570
569
572
570
572
570
572
574
574
572
574
572
572
574
573
572
572
570
568
572
568
567
570
564
568
566
564
692
566
566
560
560
560
560
562
560
688
556
556
684
558
554
556
556
554
552
554
554
550
554
550
548
548
548
676
544
544
544
672
540
542
540
541
540
538
538
538
534
532
534
532
530
526
652
524
522
522
522
516
516
516
514
514
512
510
510
508
508
506
508
506
508
504
504
502
502
500
502
500
500
500
500
496
498
498
496
494
492
494
490
490
488
490
488
488
486
488
486
486
486
488
486
486
486
486
482
484
482
480
484
484
484
486
482
484
482
484
484
482
484
480
482
486
482
482
484
480
480
482
480
482
480
478
480
482
482
482
478
476
480
482
480
482
480
478
484
482
480
480
478
478
478
478
480
480
480
478
478
476
480
478
474
478
478
476
476
480
478
476
474
476
476
474
476
478
478
476
475
474
472
470
468
470
470
468
468
468
466
464
464
466
462
462
462
462
462
458
460
458
458
458
456
458
456
454
452
450
450
448
448
448
446
446
446
446
444
444
444
444
442
443
444
444
444
442
444
442
440
438
438
438
436
434
434
434
434
436
432
436
430
430
430
428
430
422
422
424
426
420
420
420
418
416
416
414
414
414
410
410
408
410
406
404
402
404
402
402
402
400
400
400
396
396
396
396
390
392
390
386
388
386
380
378
374
376
372
374
372
370
370
370
366
366
364
362
358
354
360
356
358
358
482
480
350
476
476
344
344
343
344
344
338
342
338
336
334
336
334
338
334
332
334
332
330
456
326
322
326
324
324
322
322
324
320
448
318
316
314
312
438
312
436
308
308
432
302
302
302
428
300
299
297
300
424
294
296
420
294
289
418
288
416
286
286
287
283
284
282
284
282
280
281
279
276
278
274
404
402
274
272
272
272
270
270
268
394
266
264
392
264
262
262
260
260
388
258
388
384
384
384
252
250
244
245
250
242
244
244
240
240
238
240
237
238
236
234
238
236
234
234
236
232
234
234
232
236
234
234
236
235
238
236
240
244
244
244
243
250
250
252
252
258
262
262
264
268
270
272
286
285
294
295
300
304
306
310
314
448
450
326
332
336
340
342
348
354
358
360
366
369
374
378
386
388
394
396
404
408
412
416
422
426
426
434
444
450
452
458
458
464
470
472
476
478
484
488
490
494
496
496
502
510
514
644
524
522
524
526
534
534
530
664
538
540
546
542
546
676
548
550
550
552
552
556
556
556
556
558
554
556
556
557
558
560
558
558
558
558
558
558
558
558
558
558
558
558
554
554
556
556
558
556
559
556
556
558
556
556
556
554
554
556
552
554
556
558
682
552
556
556
552
554
554
678
680
550
550
550
550
548
550
548
550
550
550
548
544
548
548
674
672
544
674
544
542
540
538
538
536
534
536
536
534
534
660
660
530
658
656
530
528
528
524
526
524
526
650
522
518
648
516
644
518
516
514
514
512
510
510
508
508
506
504
506
508
504
506
506
504
504
506
504
504
504
502
502
502
502
502
502
502
500
502
498
504
500
502
500
502
502
502
502
500
502
500
502
496
500
496
496
498
496
496
493
492
498
492
494
492
492
492
494
490
493
492
492
492
492
492
488
490
488
488
488
488
488
486
486
486
488
488
484
482
486
482
482
482
484
480
482
482
482
484
478
482
482
480
478
482
480
484
482
482
480
478
480
480
478
478
478
478
478
480
478
478
476
478
476
476
478
476
478
476
476
472
472
472
470
474
468
470
470
470
468
466
468
468
464
462
462
462
459
460
460
456
456
456
454
450
450
450
452
446
446
446
450
446
444
442
444
446
440
442
442
442
438
442
436
438
438
436
434
432
428
428
422
424
424
426
420
416
422
416
414
414
412
412
410
408
410
408
406
402
404
402
400
400
400
394
394
394
390
392
390
388
390
386
390
382
380
379
376
374
372
373
374
372
372
498
364
368
366
358
360
486
356
352
476
350
348
350
346
342
472
342
342
342
338
336
338
336
334
464
462
330
330
328
324
326
326
324
320
322
448
319
318
318
318
316
318
444
314
312
312
314
310
306
312
308
434
436
306
304
302
304
302
430
301
296
294
294
293
294
422
292
294
418
288
289
416
414
286
286
286
284
283
408
408
404
410
276
278
274
401
276
396
398
394
396
266
268
264
270
263
264
388
262
259
258
253
384
384
254
254
254
252
252
251
250
250
246
246
246
243
246
241
242
244
240
238
238
240
238
232
232
230
226
230
226
224
224
220
220
222
220
224
222
222
220
220
218
218
218
218
219
222
224
224
226
228
232
233
236
238
238
240
245
252
386
254
264
266
270
270
276
280
412
286
294
304
310
444
318
450
328
350
372
376
384
388
392
404
420
426
428
432
438
444
444
448
454
458
462
472
476
480
484
488
488
492
494
500
502
504
506
510
512
512
518
516
524
522
524
524
528
526
530
532
536
534
536
540
542
542
546
548
546
546
548
548
550
552
550
548
550
550
554
554
550
550
550
548
548
680
548
680
676
548
548
548
548
548
546
544
546
544
544
542
542
542
542
542
540
542
540
538
538
536
664
536
538
536
534
536
530
532
530
656
528
528
526
522
526
524
524
652
524
652
524
648
516
518
520
520
644
514
514
516
512
640
512
510
510
510
508
506
504
502
504
504
500
502
502
496
496
496
498
494
494
492
492
491
488
488
488
484
486
480
476
476
472
474
468
468
468
468
468
470
466
464
466
464
462
462
464
460
460
458
458
458
458
454
454
454
454
452
448
450
450
450
448
448
450
450
448
444
446
446
446
446
444
446
445
444
442
442
446
444
442
444
444
444
446
444
445
446
442
444
444
444
444
442
440
444
444
444
442
444
444
447
446
444
446
444
444
444
444
446
444
442
440
444
444
442
444
442
440
444
440
442
442
442
444
442
442
442
442
442
440
440
436
434
438
438
434
436
434
434
436
430
428
432
432
428
426
426
428
424
424
426
424
422
420
422
418
414
418
412
414
414
410
410
410
410
408
406
406
406
404
402
404
402
402
400
402
398
398
398
398
396
392
392
392
392
390
391
388
390
384
384
386
384
382
380
380
378
378
376
376
376
372
370
370
368
370
372
366
366
490
362
358
360
356
354
482
355
350
350
346
348
346
344
338
466
338
334
335
332
332
458
330
326
456
324
452
322
448
317
316
314
442
440
310
306
306
432
304
304
302
430
428
300
424
296
418
288
286
283
280
284
408
282
278
278
278
278
276
276
278
274
274
276
400
273
398
400
398
398
398
272
268
392
267
394
392
260
262
260
386
259
384
254
250
248
246
248
244
246
244
246
246
241
240
239
242
242
238
237
238
238
236
232
232
230
227
230
226
226
224
221
222
220
218
217
216
213
214
212
210
208
210
210
206
206
205
203
200
202
198
198
198
195
193
192
194
192
190
194
188
190
192
190
190
184
186
184
188
182
184
187
190
188
190
194
200
204
206
206
212
214
228
228
234
248
252
384
258
389
266
280
284
286
294
297
300
308
312
314
318
326
328
332
340
346
350
354
360
366
370
374
380
384
388
394
398
404
404
418
422
426
430
434
440
442
446
448
452
458
468
470
474
476
478
478
480
492
492
498
496
502
504
504
508
640
518
650
520
524
653
524
524
528
656
532
530
530
656
656
532
660
530
532
658
530
532
530
528
528
656
528
526
656
652
528
528
656
656
526
526
652
524
524
648
520
650
520
518
516
520
642
644
642
512
514
516
508
508
508
504
506
503
502
502
500
502
500
498
498
498
494
494
494
492
490
492
492
490
490
488
488
486
484
488
484
482
486
476
476
478
476
476
476
472
472
472
472
474
470
474
474
468
470
468
472
468
468
472
468
464
468
464
468
466
466
462
462
462
460
462
460
456
456
458
460
450
452
450
450
452
452
448
450
447
450
450
448
448
448
450
450
448
450
450
456
452
452
452
456
456
454
456
454
454
456
460
458
460
460
459
458
458
462
458
458
460
458
460
460
460
456
458
454
454
458
456
454
454
452
454
444
444
442
440
444
442
438
438
438
438
436
440
432
436
434
434
434
428
428
426
428
428
426
426
426
424
424
422
422
418
422
418
420
416
416
418
416
414
412
412
410
412
410
406
408
400
406
400
400
400
398
398
396
392
394
394
388
390
388
386
384
384
380
382
380
380
378
376
374
374
370
370
364
364
360
488
490
488
358
488
355
352
350
480
348
346
346
344
342
468
338
336
332
332
332
330
458
324
320
318
316
318
313
315
316
440
310
314
314
312
310
306
308
306
308
306
432
306
304
304
432
300
300
299
298
424
424
424
424
424
296
424
418
290
416
288
412
286
284
286
286
414
284
288
282
284
410
282
404
404
404
271
268
266
266
390
262
388
386
388
388
254
252
252
252
248
246
246
242
244
238
238
238
237
238
238
240
238
237
236
236
232
234
230
232
232
232
230
230
230
230
234
232
236
236
238
236
240
244
244
248
248
248
252
254
384
262
260
392
268
270
276
278
282
286
290
292
298
298
302
308
310
316
316
318
326
328
332
338
340
346
350
350
486
362
366
370
376
380
384
388
394
404
414
420
424
426
432
434
438
442
448
450
458
466
470
470
474
478
478
482
486
486
492
494
504
506
510
516
520
522
648
522
526
524
526
528
530
532
532
534
536
540
538
540
540
540
542
544
544
542
544
544
548
546
546
548
546
546
546
546
672
674
548
674
546
674
546
548
548
546
544
544
542
544
542
542
538
538
538
536
538
538
666
536
536
536
534
532
530
658
526
526
528
526
526
526
524
524
520
524
648
520
522
518
522
520
516
518
516
514
514
642
510
640
508
508
504
502
502
502
498
498
496
494
492
488
490
486
482
478
474
472
470
470
466
464
454
458
458
454
456
452
448
448
450
448
447
446
448
446
442
440
442
444
442
440
438
440
438
438
440
438
434
438
438
438
436
438
434
434
438
436
436
434
436
437
440
440
438
438
436
440
442
436
440
440
440
440
442
442
442
440
442
444
442
440
442
440
440
442
440
442
440
442
440
438
442
444
436
440
440
440
440
438
440
442
438
436
436
434
436
438
434
438
434
432
434
434
432
428
430
424
428
428
426
426
426
426
428
430
428
424
424
422
424
424
421
420
416
418
414
414
412
414
412
410
408
410
404
406
404
404
403
398
398
398
400
396
394
394
392
390
388
386
388
380
380
380
378
378
370
370
368
368
366
364
490
364
490
490
358
358
356
352
350
348
350
346
348
342
342
340
334
462
456
326
322
318
318
317
314
438
440
310
306
306
432
430
302
298
296
294
290
286
285
282
284
282
280
276
275
270
274
270
270
396
394
394
262
262
386
254
252
252
250
250
249
246
248
246
242
246
240
236
236
236
236
222
222
219
218
216
218
217
218
216
218
215
210
209
212
208
208
208
208
204
205
204
202
202
200
198
200
195
194
196
197
192
194
192
190
190
186
188
187
186
186
186
187
184
183
182
180
178
178
180
180
176
172
174
172
170
170
170
172
170
166
164
164
162
158
155
153
152
152
151
149
150
146
146
142
154
156
156
157
160
168
166
168
174
178
180
184
187
193
195
198
204
208
208
216
216
220
230
230
236
240
246
250
256
256
266
272
274
408
284
290
317
448
344
344
476
480
358
362
364
384
388
392
398
402
408
412
414
424
424
430
438
450
458
464
466
466
486
502
504
508
640
642
642
648
650
524
526
524
526
528
656
656
656
532
658
532
658
534
660
534
666
538
536
532
536
536
660
536
660
536
534
536
534
532
532
532
530
532
530
530
656
526
532
530
526
528
526
526
526
526
526
524
524
524
522
522
520
520
520
520
520
516
518
518
516
516
516
510
510
508
508
504
506
504
502
504
504
500
502
500
500
498
498
498
498
498
494
496
494
494
492
492
490
490
490
488
490
484
486
482
484
482
478
478
478
474
474
474
470
470
468
468
466
466
464
460
462
462
462
460
460
460
460
458
458
460
456
456
454
456
456
454
454
452
452
452
452
454
450
448
450
448
450
450
448
448
450
448
448
448
446
446
447
446
446
446
446
442
446
444
446
444
445
444
442
442
442
442
442
438
440
440
442
438
440
442
440
442
440
442
442
440
438
440
440
440
436
438
438
438
438
436
436
436
436
432
436
436
434
434
434
432
429
434
428
430
428
429
422
428
428
426
426
424
426
422
420
418
412
410
410
408
408
404
404
404
400
398
396
394
396
396
392
392
392
390
390
388
388
384
382
384
380
380
376
378
376
376
376
372
498
372
496
368
364
366
362
362
490
360
358
358
358
484
354
356
352
350
350
350
350
344
344
344
340
336
466
464
336
334
462
334
460
330
328
326
326
326
321
448
316
311
312
312
312
310
308
306
307
306
302
300
297
298
296
298
292
292
292
288
288
288
286
284
282
280
279
406
278
275
272
274
270
269
268
270
268
396
260
264
388
386
254
253
250
248
246
246
244
244
242
244
242
237
238
236
238
238
234
236
234
230
229
228
227
228
224
222
222
222
222
219
218
218
218
216
214
212
212
212
210
209
210
208
210
208
208
204
206
206
204
204
202
200
200
198
198
198
194
192
190
194
190
191
189
190
192
190
188
186
186
186
185
184
186
186
186
180
180
182
178
177
178
178
176
176
175
178
174
174
172
173
172
174
170
172
166
164
164
164
163
162
160
160
160
160
155
156
158
160
152
154
156
152
154
152
154
154
154
158
156
158
158
162
164
168
168
170
172
180
180
184
185
188
190
196
202
204
208
212
218
220
224
228
231
239
386
386
266
272
280
282
416
294
298
304
304
314
316
322
330
464
342
350
352
360
364
366
374
384
386
392
396
398
405
412
428
432
434
442
444
447
456
456
460
466
472
474
480
482
486
490
494
498
502
506
506
516
524
526
528
534
536
540
542
546
544
550
550
557
558
560
564
692
564
570
570
573
572
572
574
573
574
574
704
704
706
578
708
706
704
576
706
574
704
702
575
574
576
572
574
694
568
570
566
570
568
568
566
696
562
562
564
568
564
566
560
558
560
558
558
557
555
552
552
552
548
548
548
546
542
542
668
538
536
538
534
532
534
532
530
656
526
650
650
524
646
518
516
516
516
640
508
508
508
504
502
504
502
504
500
498
498
498
496
494
496
494
494
492
492
490
490
488
488
486
486
484
482
478
480
478
480
478
476
476
476
472
470
472
474
474
476
470
472
472
472
470
468
472
468
472
472
468
470
468
468
470
470
466
468
472
470
470
468
470
468
468
470
470
470
472
474
474
474
474
472
472
476
476
474
474
478
476
476
476
472
474
476
474
474
476
478
476
478
476
478
476
476
480
480
477
478
478
478
476
480
478
478
480
476
474
478
476
474
474
474
476
474
474
472
472
472
470
470
472
468
466
466
462
466
466
462
462
462
460
460
456
454
450
450
452
448
447
446
446
444
446
444
442
442
442
440
438
436
432
428
428
428
426
422
422
416
418
414
410
408
408
408
406
402
400
402
398
396
396
396
394
392
392
388
384
386
384
382
378
378
376
380
378
372
374
374
374
370
366
366
366
364
358
362
360
360
356
354
354
354
350
350
346
346
342
342
340
336
336
334
334
332
330
456
326
326
326
320
450
322
316
318
318
314
314
432
304
302
430
300
300
428
296
420
284
284
284
280
284
280
278
280
276
276
400
272
274
274
270
268
268
268
396
394
266
394
262
262
390
260
386
254
253
252
254
252
253
250
250
250
248
248
246
247
244
243
244
240
240
238
240
240
242
234
236
236
236
234
236
232
230
228
230
224
225
226
220
221
222
220
220
218
220
216
218
213
212
210
210
214
208
206
210
204
202
200
196
196
196
198
196
194
192
194
190
190
187
189
190
186
186
184
188
182
182
178
181
179
178
174
180
174
176
172
172
173
170
171
171
170
170
170
170
170
170
170
171
172
174
174
172
175
172
176
184
184
186
190
192
192
198
202
208
208
214
220
221
226
233
238
244
244
248
258
259
268
274
280
284
292
296
302
306
312
318
336
340
348
352
360
366
372
378
384
390
396
404
410
424
432
438
444
446
454
454
462
470
484
488
492
496
502
506
514
516
522
656
532
536
540
542
552
684
558
564
566
570
574
574
706
582
584
586
586
594
594
598
598
602
602
604
604
608
612
612
612
612
618
615
616
616
618
620
620
622
622
622
622
622
618
622
620
620
620
620
620
620
620
616
620
620
618
616
620
614
614
744
614
742
608
610
608
608
606
606
604
602
602
600
596
595
592
594
590
590
586
584
712
580
578
708
578
575
574
572
572
570
570
568
570
562
692
688
558
556
554
550
550
676
548
546
542
672
540
540
538
534
534
536
532
528
656
526
524
524
524
648
522
522
520
518
648
518
518
640
642
508
508
508
506
502
502
502
502
498
498
500
496
498
494
494
496
492
496
492
494
492
492
494
490
492
490
494
494
492
494
496
494
494
492
494
496
492
494
494
498
502
498
498
498
498
500
500
500
502
504
504
504
506
507
508
510
506
506
508
506
508
506
506
506
508
506
508
506
504
504
504
502
504
502
504
504
504
500
500
502
502
500
498
498
496
494
494
496
500
498
498
494
494
496
496
492
492
492
490
494
492
490
490
486
488
484
482
476
472
464
460
454
454
452
446
446
444
446
444
442
438
438
436
438
434
428
428
426
426
422
424
420
422
416
416
416
414
412
410
410
408
404
406
402
402
398
398
398
396
394
390
390
390
388
388
384
384
382
376
376
376
374
374
374
368
368
368
366
365
362
362
360
488
356
354
354
352
348
348
346
346
342
343
340
340
464
338
336
334
332
330
328
326
328
450
322
320
319
318
316
318
318
316
316
311
311
308
436
306
308
306
301
302
302
302
300
300
298
428
296
298
294
293
294
294
294
292
288
289
416
284
287
284
284
284
282
282
282
278
276
278
274
274
272
270
272
268
270
270
268
392
390
262
392
262
260
258
384
252
252
250
252
252
250
248
250
244
246
248
248
244
246
242
242
242
242
242
238
238
237
236
234
236
236
240
240
236
240
240
238
238
242
244
242
246
248
250
250
252
258
262
264
268
268
281
286
416
292
298
302
308
311
318
448
334
340
346
350
362
380
392
394
410
428
434
454
460
466
472
486
498
504
660
662
538
676
548
556
558
562
568
570
574
586
588
720
722
604
602
604
610
612
616
618
620
620
622
624
630
624
634
632
632
634
632
634
636
636
636
638
636
634
638
636
637
636
634
636
632
634
632
632
632
630
630
630
632
632
628
632
630
628
630
624
624
626
620
618
620
618
618
618
616
616
612
614
614
608
606
604
604
602
728
596
594
590
590
588
588
580
575
575
574
568
570
566
564
562
564
562
684
554
680
678
676
540
538
664
530
656
658
522
652
520
640
512
514
500
502
498
498
498
496
494
494
492
494
490
492
490
486
486
484
486
486
482
484
482
482
480
478
480
480
482
480
478
476
476
478
476
474
476
476
474
478
476
476
474
476
476
476
476
478
478
476
478
476
478
478
480
476
478
478
480
480
478
480
480
482
484
482
480
480
480
482
482
484
488
484
482
486
484
480
480
476
478
476
478
476
474
476
476
476
476
478
474
474
475
470
474
472
472
470
470
470
468
470
464
466
466
464
462
462
460
458
456
456
454
452
454
454
452
447
450
450
450
447
444
446
440
444
442
440
438
440
436
438
434
434
434
434
432
434
434
432
432
428
426
426
424
420
420
420
416
414
414
412
412
408
408
406
408
400
402
398
400
400
396
394
396
392
392
390
390
386
386
386
386
380
380
378
378
376
376
372
372
370
370
496
368
366
364
364
362
356
360
358
354
354
352
352
348
350
348
346
344
345
342
344
340
340
334
334
332
331
330
456
330
326
326
326
322
321
448
319
320
448
316
318
318
316
318
316
310
312
312
310
438
440
306
304
303
428
302
301
300
422
298
286
283
281
408
278
276
404
402
272
398
396
392
394
262
262
254
252
252
252
250
250
250
248
246
246
242
242
242
240
238
240
238
232
232
234
233
230
230
228
225
228
224
230
226
220
221
220
222
222
222
222
222
222
224
222
225
226
232
229
232
232
235
238
249
250
252
254
388
394
394
274
276
280
422
426
432
324
326
332
339
342
346
350
488
364
384
390
394
404
408
414
424
430
444
448
456
460
466
474
480
486
488
498
502
508
516
518
524
530
536
540
544
676
554
558
560
566
570
574
576
582
594
602
612
614
620
626
628
630
634
636
644
646
652
652
654
656
656
658
660
656
662
664
662
660
662
660
662
662
664
662
664
660
664
662
660
658
659
660
660
660
660
656
660
656
660
658
656
654
654
652
652
652
652
652
652
650
646
646
648
646
644
643
640
642
642
642
636
634
636
634
630
630
632
630
624
624
625
620
620
616
620
616
616
616
614
613
612
610
610
608
608
606
606
602
602
600
598
600
722
596
596
590
592
590
590
588
588
714
582
578
582
578
576
578
574
576
574
570
570
566
566
562
562
564
558
688
688
686
676
676
674
546
544
544
672
540
542
542
542
542
540
540
540
668
540
540
538
536
536
534
664
534
536
540
664
534
534
538
534
536
538
536
538
538
536
536
540
536
534
538
536
534
538
534
538
534
660
536
536
538
536
538
540
538
666
538
538
668
540
668
540
542
540
540
668
540
668
540
542
540
540
668
540
538
534
540
534
536
538
534
532
532
534
534
658
532
660
658
658
654
522
524
522
646
520
518
516
646
518
642
508
510
508
508
508
508
506
506
502
502
498
500
498
496
492
492
490
490
488
490
488
486
488
482
480
478
478
476
474
474
474
470
470
462
460
462
444
442
442
442
438
436
436
438
432
430
430
420
418
414
414
416
410
410
406
402
402
404
402
396
398
394
396
392
384
388
382
376
370
370
500
496
496
368
492
362
364
362
358
358
358
354
354
350
346
350
344
334
460
460
456
326
452
322
319
448
318
316
314
314
314
316
314
312
314
312
440
312
310
312
310
308
306
436
302
434
430
301
300
300
300
298
296
297
296
298
294
294
294
292
292
290
290
292
286
292
288
416
291
292
292
418
292
292
292
294
424
298
298
300
302
300
302
308
308
314
312
316
314
320
326
334
336
344
348
350
358
358
366
368
376
378
378
384
392
396
400
406
412
414
420
426
430
438
444
448
456
458
466
474
480
486
492
494
502
506
514
518
524
530
534
540
546
554
558
564
568
574
580
712
588
594
598
600
606
608
616
622
624
630
634
638
642
648
650
658
658
660
662
666
678
682
684
687
698
698
700
702
702
702
702
704
704
704
705
708
706
706
710
714
712
712
710
712
710
708
712
706
708
712
710
712
712
708
712
708
712
709
710
708
708
706
706
704
702
703
702
702
701
700
700
698
698
696
696
696
692
694
694
694
694
692
691
690
688
688
688
690
682
684
680
681
680
680
680
680
678
676
674
676
678
674
672
670
670
668
668
666
666
666
664
662
662
662
662
659
656
654
652
654
650
648
650
648
644
640
640
638
634
635
634
632
630
630
630
628
630
624
626
624
750
622
622
616
614
736
606
736
606
606
606
606
604
728
730
600
728
602
598
594
592
716
588
712
586
586
714
585
584
584
584
586
712
714
584
582
582
582
582
710
708
710
710
580
578
708
574
576
578
706
576
575
704
576
574
573
576
704
574
574
574
578
578
578
578
706
704
578
574
706
574
704
572
573
572
572
574
572
572
570
570
568
694
568
564
692
564
566
692
690
558
556
556
556
554
552
554
554
552
552
552
680
552
550
548
674
544
674
540
668
538
538
538
666
664
536
660
648
646
642
506
506
504
502
500
500
500
496
496
494
484
476
478
476
474
478
472
476
470
472
470
466
462
464
456
460
452
448
444
446
444
442
444
436
434
434
432
428
428
428
428
424
422
422
418
420
416
414
412
412
412
410
408
404
408
402
404
402
400
400
398
398
398
396
396
394
392
394
392
392
382
384
374
376
502
374
366
366
364
365
364
360
360
362
360
356
356
358
356
354
351
348
346
346
348
474
346
338
340
338
334
336
334
334
330
330
330
328
328
328
320
324
452
322
320
322
322
318
319
318
314
316
314
316
312
315
314
316
316
312
314
312
316
318
318
320
318
320
322
322
448
326
330
332
330
334
336
466
342
346
348
354
356
362
362
368
372
378
380
384
388
392
396
400
406
412
412
422
424
432
436
442
446
454
458
464
468
474
480
486
490
496
498
508
514
522
526
530
540
544
548
552
560
566
570
574
580
584
592
596
600
604
610
616
620
628
630
636
640
646
650
652
655
656
664
662
670
672
672
678
682
680
685
688
688
692
694
698
700
702
702
704
706
710
712
710
710
712
714
714
716
712
716
715
716
720
716
718
716
717
716
718
714
718
710
716
714
714
714
710
708
714
710
707
706
708
706
704
703
702
700
703
700
702
699
698
698
698
700
696
694
692
696
694
694
694
690
688
688
683
680
681
684
676
676
676
676
674
672
674
672
668
670
666
662
652
654
652
648
646
648
642
638
640
638
636
634
632
633
632
628
632
626
628
624
620
618
618
616
614
614
610
610
738
604
604
600
728
600
598
596
596
724
594
596
594
716
586
590
714
586
586
584
582
582
582
712
582
582
580
706
574
574
578
580
575
574
704
576
704
574
574
574
574
574
574
574
576
574
575
574
575
570
574
574
574
574
574
574
572
574
574
574
570
572
574
572
570
572
574
572
574
570
574
574
574
572
572
572
570
570
570
570
566
570
568
568
568
566
566
570
568
566
566
564
568
563
562
558
558
558
556
554
556
554
554
682
552
552
554
680
552
550
550
550
546
546
542
541
542
538
540
538
536
664
534
658
532
654
522
652
650
522
648
650
520
644
648
642
508
508
508
640
504
500
496
496
492
492
490
490
490
490
488
486
486
490
488
484
484
482
482
480
480
476
474
472
472
470
468
464
464
464
464
462
450
452
452
446
446
446
440
438
438
438
436
440
434
436
430
432
430
432
432
430
430
426
426
426
422
420
422
418
418
420
418
410
408
406
406
406
406
402
402
400
398
396
400
396
396
394
394
396
394
392
388
390
386
386
506
380
378
376
376
372
376
376
376
372
374
374
505
378
378
380
384
384
384
388
388
390
394
394
398
410
414
416
434
438
440
446
470
494
496
504
508
644
650
654
668
672
550
572
575
580
584
714
592
598
602
604
610
612
618
622
634
636
644
643
652
656
658
662
662
668
675
674
676
676
680
684
686
684
688
688
692
692
692
694
696
698
700
698
700
698
703
700
702
702
702
702
702
704
706
704
702
702
702
700
700
700
702
699
696
696
698
696
698
692
696
696
696
692
692
694
688
688
688
682
680
676
680
678
676
674
670
674
671
668
668
668
666
664
662
660
656
656
654
652
652
653
650
646
648
644
644
638
636
636
636
631
634
758
628
624
626
624
622
618
618
612
606
604
600
596
596
598
598
594
594
702
570
698
696
694
694
692
682
554
682
682
550
548
674
544
546
544
542
542
540
542
540
538
540
670
666
538
668
540
540
538
540
542
540
542
542
540
542
542
544
542
542
542
542
542
542
542
541
540
546
542
544
544
546
542
544
542
544
542
542
542
672
542
542
542
540
540
542
538
538
538
540
538
538
536
540
536
536
536
534
534
534
660
532
532
530
656
656
526
526
526
522
524
648
648
522
518
646
520
644
640
518
516
516
642
644
642
508
508
510
510
512
508
508
508
506
508
506
506
506
504
502
504
504
502
502
500
498
500
494
492
492
492
490
488
486
482
482
480
480
480
478
476
476
477
476
474
476
472
468
466
468
468
468
464
466
462
464
462
462
460
462
458
458
458
456
454
454
452
452
452
448
446
446
447
444
442
440
440
440
440
436
436
436
432
430
430
428
426
426
424
422
424
420
422
420
413
418
414
414
414
410
408
406
406
406
404
398
399
400
398
398
398
398
396
396
396
396
390
392
392
388
390
386
386
382
380
380
378
380
374
374
372
370
370
364
368
368
364
364
364
362
362
356
358
354
354
352
352
350
350
346
348
346
342
346
344
344
338
342
338
464
338
332
332
460
332
330
454
328
328
326
328
326
324
324
324
452
448
453
452
322
324
328
326
326
456
330
330
330
336
341
344
346
346
348
352
354
358
363
366
368
374
380
380
384
390
394
396
402
414
422
424
426
432
438
440
446
448
452
472
478
480
486
492
494
502
508
640
520
520
526
530
534
540
546
552
684
560
562
568
572
576
584
586
590
594
604
608
614
618
620
750
754
638
642
644
648
652
654
656
658
660
666
668
666
670
668
672
674
674
674
676
679
676
678
680
680
682
680
680
684
677
678
680
683
680
680
680
682
680
678
678
680
678
679
672
674
675
673
670
666
662
662
660
656
658
658
656
648
644
644
640
762
756
626
624
622
622
620
620
620
618
610
610
608
604
604
602
602
730
726
726
722
594
720
584
586
586
586
584
710
578
574
576
574
572
572
570
572
572
572
570
572
570
568
566
566
568
566
562
562
564
566
562
564
564
564
562
562
560
562
564
560
560
558
560
557
558
564
558
558
558
560
556
558
558
558
556
556
554
558
556
558
558
558
554
558
556
556
556
556
556
554
556
554
554
554
552
682
556
552
556
682
680
554
550
552
552
552
548
678
550
678
678
548
550
550
550
548
548
548
546
548
544
672
542
542
668
540
668
540
538
667
538
536
536
534
660
532
534
530
532
528
530
526
652
524
522
650
518
520
648
642
518
518
644
642
640
514
640
508
506
500
498
492
492
492
492
488
486
488
488
484
480
476
478
476
476
472
470
464
460
460
456
458
456
452
454
450
454
450
448
442
442
436
438
432
434
432
424
420
422
422
416
414
412
412
410
406
404
398
402
400
400
398
398
394
394
392
384
380
381
382
380
380
380
378
378
374
374
368
368
496
364
364
358
484
482
354
353
354
480
352
348
348
346
348
344
344
346
342
342
340
338
340
468
466
338
338
333
332
322
322
322
450
320
318
318
318
318
316
312
314
312
312
308
308
430
301
304
424
301
428
298
302
298
302
304
306
302
302
432
308
304
308
308
308
310
310
314
316
318
322
448
328
456
330
336
466
344
348
350
358
362
362
366
370
378
380
382
390
396
404
406
410
416
422
426
430
454
458
466
472
478
484
488
494
514
546
560
566
572
583
588
592
594
600
606
606
612
618
618
626
628
632
636
638
642
646
652
652
654
656
660
664
658
664
669
669
672
673
682
686
686
682
687
688
694
692
690
692
694
692
692
692
691
692
690
692
687
687
691
687
690
686
686
688
688
688
686
688
682
682
680
678
678
676
678
678
674
670
670
670
668
664
665
664
662
662
660
664
658
658
654
656
650
650
650
650
650
648
646
636
634
632
632
632
630
630
626
624
624
622
620
619
618
740
616
612
614
610
732
606
604
602
602
598
594
588
716
586
706
576
574
574
570
568
568
566
564
564
562
562
688
686
556
680
678
676
550
548
674
672
542
540
668
542
538
542
540
536
538
538
538
536
662
540
532
538
534
532
536
532
536
534
532
660
532
534
534
532
532
530
660
536
532
530
532
532
532
528
530
526
528
656
524
526
524
526
522
524
522
524
520
520
522
520
520
520
644
520
514
512
640
514
512
508
512
508
506
508
506
504
502
502
498
496
500
500
498
494
494
494
492
492
492
490
490
484
484
486
484
478
478
478
476
478
476
476
472
472
470
468
468
468
464
462
460
460
460
458
458
456
454
454
452
454
452
446
450
450
450
444
448
446
444
442
442
442
438
436
440
434
436
434
434
432
430
428
426
426
422
422
424
422
420
418
418
414
412
412
410
408
408
404
406
400
406
398
400
398
398
396
396
392
396
392
392
390
386
384
384
384
380
380
384
378
376
374
374
370
372
372
366
368
364
364
364
364
360
358
484
356
358
482
350
346
350
346
346
344
343
340
342
342
340
338
338
466
464
336
330
330
456
458
328
326
452
324
326
323
319
322
448
448
318
316
318
316
442
312
312
312
308
306
308
302
299
302
428
300
300
300
300
298
424
296
298
294
290
422
416
416
286
290
285
412
284
278
278
406
404
404
274
274
400
273
270
270
398
267
268
264
390
262
389
386
259
258
384
252
252
252
254
250
248
248
250
246
248
246
244
242
244
244
246
244
240
246
244
244
248
248
246
248
252
254
384
388
259
392
264
268
272
272
278
282
284
291
293
298
314
314
324
326
330
336
342
346
348
354
360
366
374
376
384
388
404
412
414
418
424
428
434
440
444
452
454
460
462
480
488
490
492
498
504
506
510
644
520
524
526
532
536
544
678
552
554
556
562
564
568
574
704
580
580
584
586
716
590
596
596
598
600
606
730
606
606
605
608
608
608
606
608
610
608
606
612
612
612
614
610
608
612
614
610
612
612
610
610
612
608
610
610
610
606
611
606
608
606
608
606
604
602
604
605
604
602
604
602
602
604
600
602
600
600
598
596
598
594
590
594
594
590
594
590
592
590
720
590
590
588
584
584
587
582
582
580
708
580
706
580
706
706
574
574
568
568
566
566
564
564
562
562
560
558
558
560
558
554
552
552
682
550
546
542
672
540
538
536
538
536
536
532
532
534
528
530
532
530
528
526
526
526
656
524
654
652
522
522
522
520
652
520
518
514
518
516
642
644
642
514
510
512
512
508
508
506
506
506
504
504
504
504
502
500
500
504
504
502
502
502
502
498
506
504
506
502
504
504
506
504
508
504
502
506
504
502
502
504
502
500
504
496
502
502
498
500
500
498
500
498
498
498
500
494
496
498
496
494
492
492
492
490
492
490
490
490
490
488
490
490
490
490
490
492
488
488
488
484
488
486
484
486
482
484
482
480
480
484
480
480
476
476
478
476
478
478
476
472
472
474
470
468
470
466
468
466
466
464
464
460
458
452
456
454
452
450
450
447
447
446
444
444
442
436
434
434
432
434
430
430
426
428
426
424
426
424
420
416
412
414
412
412
412
406
404
404
400
400
400
400
398
394
392
392
392
392
388
390
388
384
382
380
380
380
378
372
374
370
370
496
368
494
364
364
360
488
352
480
352
352
478
348
342
472
340
336
466
338
466
332
462
332
460
462
460
458
330
326
326
450
320
324
319
319
318
310
440
314
312
310
308
306
434
434
304
300
300
304
302
300
300
301
298
300
300
298
298
298
294
292
292
292
420
416
416
286
286
280
408
282
282
406
404
402
400
400
274
270
393
266
266
262
262
390
384
385
254
254
254
253
251
246
244
246
246
246
244
246
244
243
244
242
242
240
240
242
242
242
240
236
238
236
240
242
240
239
240
240
240
240
242
245
244
246
248
248
250
252
254
260
386
260
258
264
268
272
274
274
278
284
416
287
294
298
298
302
310
312
318
320
322
330
334
468
344
350
491
368
374
380
386
444
466
472
476
642
646
650
524
540
538
544
678
700
714
598
598
732
604
736
740
620
620
748
752
624
750
620
622
620
622
620
620
622
618
618
616
616
618
614
616
618
614
613
610
612
608
608
606
606
602
604
600
600
596
598
592
594
594
590
590
588
586
588
586
586
580
708
578
578
580
574
574
574
571
566
570
566
566
564
562
558
558
556
554
556
556
680
676
548
546
540
670
532
532
654
656
525
652
520
516
504
508
506
500
496
494
492
492
488
486
486
486
482
484
476
474
474
472
470
466
466
464
460
458
456
458
452
454
450
448
450
447
448
446
446
444
444
444
440
442
440
440
436
438
438
434
432
432
436
432
434
430
430
430
434
430
432
432
428
430
432
428
432
426
430
430
430
428
426
428
428
424
428
424
424
424
424
424
422
422
422
420
420
422
420
418
416
420
420
414
418
418
418
420
416
416
418
414
414
414
412
410
410
412
410
408
406
410
408
408
404
404
404
404
400
398
402
398
394
396
394
394
392
396
390
390
390
386
384
388
384
384
382
380
378
378
378
376
374
372
370
368
368
366
364
364
364
360
358
358
356
356
356
354
354
352
348
346
344
340
344
342
340
468
336
338
334
334
332
330
328
328
456
326
322
320
320
319
318
318
316
316
436
310
308
308
306
302
302
300
300
294
294
417
420
292
416
284
285
286
284
408
404
400
400
266
264
262
390
389
388
388
260
254
386
384
254
386
253
252
249
246
244
248
244
246
244
240
243
242
239
238
238
238
238
236
236
236
234
236
234
230
228
228
228
228
228
226
224
226
224
224
222
226
220
218
218
218
216
213
210
212
212
210
204
204
204
202
204
200
199
198
198
198
196
191
194
194
190
192
190
189
188
192
190
188
186
188
186
184
182
182
182
181
184
180
179
178
176
172
174
176
174
172
172
168
172
172
172
171
172
174
175
176
178
180
181
180
186
185
188
188
192
196
198
200
204
208
218
239
242
250
384
260
400
408
303
318
448
330
334
340
342
349
356
358
366
374
378
380
404
408
412
420
424
434
444
446
450
454
462
462
462
470
476
482
484
486
490
492
496
502
506
506
642
520
520
522
522
528
658
662
538
666
538
542
672
544
546
544
678
550
550
552
552
552
556
684
558
558
558
558
558
558
682
558
558
556
554
556
556
558
684
556
558
554
680
682
554
555
552
550
680
550
680
552
550
548
548
548
546
544
544
542
540
542
540
538
536
540
536
536
660
534
536
532
532
530
530
530
530
526
528
528
528
654
524
526
652
524
524
652
520
520
518
644
514
646
516
514
640
512
510
506
508
506
506
504
504
502
504
498
498
496
496
494
494
494
492
492
490
486
488
488
486
484
484
480
482
478
478
476
476
474
472
474
472
470
472
468
468
468
460
462
460
460
460
460
456
452
450
452
452
450
450
450
447
448
446
444
446
446
444
444
444
442
444
442
442
440
442
440
442
442
438
440
438
436
438
438
434
436
436
434
438
436
436
434
436
434
432
434
434
430
436
436
432
432
434
432
430
430
434
432
432
432
432
432
430
432
430
430
428
430
428
432
430
432
429
428
426
428
426
426
424
418
420
418
414
416
416
414
412
410
412
410
406
408
402
402
402
402
398
398
398
396
396
395
392
390
394
390
386
386
386
384
386
384
380
382
378
382
376
374
374
500
370
368
366
370
366
362
362
354
482
476
346
344
340
338
334
330
328
452
324
322
319
318
318
316
318
316
314
436
310
310
307
436
307
304
430
306
432
302
302
302
298
300
300
298
298
292
292
294
290
290
286
280
282
280
280
278
274
274
400
272
272
268
268
268
265
264
262
260
388
386
258
256
254
254
256
252
251
250
250
250
250
244
246
244
241
244
239
236
236
236
236
233
234
234
230
232
230
230
226
228
226
223
222
226
224
223
222
222
220
220
214
220
216
216
214
215
214
214
210
212
210
210
208
206
207
204
206
208
208
202
202
200
198
196
194
194
192
192
191
191
188
190
187
188
188
185
184
184
182
184
180
180
178
178
174
177
174
174
174
171
170
174
172
169
170
169
166
168
166
164
162
164
160
160
160
157
158
158
158
160
158
158
153
154
156
156
156
156
154
156
162
160
163
172
176
177
180
184
186
190
192
201
204
209
212
216
218
224
228
232
236
241
246
252
258
264
268
276
278
286
290
298
306
308
314
319
454
332
340
342
348
348
362
366
370
376
386
392
394
402
408
414
430
434
440
444
452
456
460
466
468
476
478
484
488
494
498
498
502
508
642
518
650
526
526
658
536
664
540
542
542
548
674
558
558
560
566
566
566
568
570
570
572
572
573
574
574
708
578
578
578
576
708
582
582
582
708
708
582
580
580
580
580
578
708
578
706
706
570
570
570
565
565
568
564
564
562
564
694
564
690
560
560
688
564
560
558
686
554
554
548
680
546
674
542
540
664
662
658
532
532
658
530
652
526
524
524
522
524
520
520
520
516
512
516
508
506
508
506
504
500
504
496
502
494
494
492
494
494
490
488
488
488
488
484
480
484
480
478
476
474
472
472
472
472
470
468
468
468
466
464
464
462
460
462
458
458
456
454
456
454
454
454
456
452
454
452
452
452
452
454
452
452
452
450
450
450
448
452
450
452
448
448
450
447
446
448
446
446
446
446
444
446
446
446
444
446
442
444
442
444
442
444
442
442
438
442
438
440
440
434
436
436
434
430
430
430
428
428
428
426
426
424
424
424
422
420
420
414
414
408
406
404
400
398
396
396
384
380
382
376
374
370
370
366
368
366
358
358
482
358
354
352
348
350
348
334
332
460
450
323
312
308
436
302
306
302
418
292
416
416
286
285
280
402
272
400
398
270
267
268
262
260
257
258
252
250
248
242
242
240
240
238
238
238
238
236
232
232
230
230
230
230
228
228
224
221
224
222
218
218
214
216
210
210
210
206
204
202
204
200
200
196
196
196
196
192
190
189
188
188
182
184
184
182
180
174
178
178
172
174
174
172
170
168
167
165
162
162
162
160
158
156
158
153
154
148
150
146
148
146
141
142
142
139
140
140
140
134
132
131
130
132
128
131
128
126
128
126
121
124
123
119
120
120
118
244
120
119
118
121
118
122
122
122
126
128
134
133
136
148
147
152
158
155
164
168
172
176
190
192
196
202
205
220
224
230
242
252
256
264
270
406
280
286
294
428
306
314
448
328
332
339
346
354
358
364
372
376
384
388
394
398
408
412
414
420
427
430
436
442
450
452
454
462
468
472
478
482
484
490
494
498
500
504
506
514
516
648
530
536
538
542
541
544
672
558
562
690
564
566
568
568
570
570
570
570
574
574
700
572
574
572
570
568
568
696
564
562
564
566
562
560
560
560
688
558
556
684
553
682
550
550
550
546
672
542
672
540
540
536
536
666
536
534
656
656
652
650
648
518
514
508
506
508
504
502
500
500
494
494
490
488
484
486
482
482
480
478
478
474
474
472
468
470
468
470
468
470
466
464
464
462
462
460
460
458
458
456
454
450
452
452
452
450
450
446
446
447
446
448
444
444
444
446
442
444
442
444
442
440
440
440
440
440
440
438
438
438
436
438
436
440
440
438
440
440
438
438
436
440
440
438
440
440
438
442
442
442
442
442
445
442
442
446
444
442
444
444
444
444
444
442
444
444
442
440
442
442
444
442
442
444
442
444
442
446
442
444
442
440
442
440
442
440
440
436
438
438
434
432
434
428
432
430
434
428
431
430
428
428
428
428
430
426
428
424
426
424
422
422
420
418
418
418
416
416
414
412
411
412
412
410
408
406
406
406
402
402
398
400
398
396
396
392
392
392
390
388
388
388
384
380
380
378
378
374
374
374
372
370
370
368
368
362
362
358
355
354
354
350
350
348
348
472
474
342
344
340
340
340
336
334
334
332
330
330
326
328
454
322
318
318
318
316
318
316
314
312
310
308
308
304
306
304
306
302
300
302
302
426
296
299
296
288
286
287
286
408
410
280
282
278
276
404
406
274
272
271
398
395
270
265
266
264
390
258
388
260
258
384
384
254
254
250
250
250
248
247
247
246
242
246
240
242
238
240
242
242
238
238
238
234
234
234
233
236
232
230
230
226
228
224
222
219
218
214
220
214
218
216
215
214
213
212
214
214
212
210
208
206
208
204
206
206
204
202
202
202
204
200
202
200
195
198
198
198
194
196
194
194
194
194
193
192
190
190
193
193
194
196
198
198
200
200
200
205
208
212
212
214
216
217
220
224
230
234
236
242
242
248
390
404
290
298
302
306
310
318
322
330
334
338
346
348
356
374
378
384
392
422
426
440
447
448
476
484
502
506
640
514
644
522
526
532
532
536
538
542
546
554
558
558
688
562
692
566
570
568
574
704
704
576
584
580
582
583
586
712
588
588
588
594
590
590
590
592
590
591
590
590
592
590
590
590
592
590
588
590
590
590
590
588
588
590
588
714
584
584
712
584
584
708
580
582
576
574
574
574
574
574
572
574
566
566
568
