848
854
860
870
876
890
894
898
904
914
918
930
922
930
938
938
944
958
954
824
848
854
860
870
876
890
894
898
904
914
918
930
922
930
938
938
944
958
954
1023
1023
1023
1023
1023
1023
1023
1023
1023
1023
1023
1023
1023
1023
1023
1023
1023
1023
1023
1023
1023
1023
1023
1023
1023
1023
1023
1023
1023
1023
1023
1023
1023
1023
1023
1023
1023
1023
1023
1023
1023
1023
1023
1023
1023
1023
1023
1023
1023
1023
1023
1023
1023
1023
1023
1023
1023
1023
1023
1023
1023
1023
1023
1023
1023
1023
1023
1023
1023
1023
1023
1023
1023
1023
1023
1023
1023
1023
1023
1023
1023
1023
1023
1023
1023
1023
1023
1023
1023
1023
1023
1023
1023
1023
1023
1023
1023
1023
1023
1023
1023
1023
1023
1023
1023
1023
1023
1023
1023
1023
1023
1023
1023
1023
1023
1023
1023
1023
1023
1023
1023
1023
1023
1023
1023
1023
1023
1023
1023
1023
1023
1023
1023
1023
1023
1023
1023
1023
1023
1023
1023
1023
1023
1023
1023
1023
1023
1023
1023
1023
1023
1023
1023
1023
1023
1023
1023
924
576
216
44
24
16
12
10
10
8
8
8
8
8
6
6
6
6
8
6
6
6
6
6
6
4
4
6
6
4
6
6
6
4
4
4
4
4
4
6
4
4
4
4
4
6
6
4
4
4
4
6
4
4
4
4
4
4
4
4
4
4
4
4
4
4
4
4
4
4
4
4
4
4
4
4
4
4
4
3
4
4
4
4
4
4
5
4
4
4
4
4
4
2
5
4
4
4
4
2
4
4
4
4
4
4
4
4
4
6
4
4
4
4
4
4
4
4
4
4
4
4
2
4
4
4
4
4
4
4
2
2
4
4
4
4
4
4
4
4
4
4
4
4
4
4
4
4
4
4
4
4
4
4
4
4
4
4
2
4
4
2
4
4
4
4
4
4
4
4
4
4
4
4
4
4
4
4
4
4
4
4
4
4
4
4
4
4
4
2
4
4
4
4
4
2
4
4
2
4
4
4
4
6
4
4
4
4
4
4
4
4
4
4
4
4
4
2
3
4
3
3
4
4
4
4
4
4
4
3
4
4
4
3
4
4
4
4
4
4
4
3
4
4
4
4
4
4
4
4
4
4
4
4
4
4
4
4
4
4
4
4
4
4
4
6
4
4
4
4
4
4
4
4
4
4
4
4
4
4
4
4
4
4
4
4
4
4
4
4
4
4
4
3
4
4
3
3
4
4
4
4
4
4
4
4
4
4
2
4
4
4
4
4
4
4
4
4
4
4
2
4
4
4
4
4
4
4
4
4
4
4
4
4
4
4
4
4
4
4
4
4
4
4
2
2
4
4
4
4
4
4
4
4
4
4
4
4
4
4
4
4
4
4
4
4
4
4
4
4
4
4
4
4
4
4
3
5
4
4
4
4
4
4
4
2
4
4
3
4
4
4
4
4
4
4
2
4
4
2
4
4
4
4
4
4
4
4
4
4
4
4
4
4
4
4
4
4
4
4
4
4
4
4
2
2
4
4
4
4
4
4
2
2
4
4
4
4
4
2
4
4
4
3
4
4
4
4
4
4
4
4
4
4
4
2
4
4
4
4
4
4
4
4
4
2
4
4
4
4
4
4
4
4
4
2
4
4
4
4
4
4
4
4
4
4
4
4
4
4
3
4
4
4
4
2
4
4
4
4
4
4
4
4
4
4
4
2
4
4
4
4
4
4
2
4
4
4
4
4
4
4
4
4
4
4
4
4
4
4
4
4
4
4
3
4
4
4
4
4
4
4
4
2
4
4
4
4
4
4
4
4
4
4
4
4
4
4
4
4
4
4
4
4
4
4
3
4
4
4
6
8
8
14
16
22
22
30
36
52
46
60
64
74
90
92
118
128
136
142
144
170
178
182
200
208
224
238
238
262
272
274
296
300
312
318
334
340
340
344
368
368
380
384
398
402
412
412
440
444
444
456
466
462
474
474
464
482
492
482
508
510
506
522
508
518
524
520
536
518
524
528
526
532
524
530
520
522
532
536
542
536
536
526
526
536
534
512
524
521
530
522
510
526
518
526
512
512
498
508
496
502
486
480
472
462
462
458
458
446
430
434
416
402
394
380
370
364
352
344
326
322
314
301
286
280
262
258
248
226
218
196
180
172
162
162
142
130
110
100
96
86
68
68
46
43
36
28
16
6
5
4
4
4
4
4
4
4
4
4
4
4
4
4
4
4
4
4
4
4
4
4
4
4
4
4
4
4
4
4
4
4
4
4
4
4
4
4
4
4
4
4
4
4
4
4
4
4
4
4
3
4
4
4
4
4
6
4
4
4
4
2
4
4
4
4
4
4
2
5
4
4
4
2
4
4
4
4
4
4
4
2
4
4
4
4
4
4
4
5
4
4
4
4
4
6
8
10
12
12
16
24
26
30
36
34
44
40
42
50
50
62
68
66
78
82
90
100
94
90
114
106
114
124
123
132
122
120
134
124
126
128
134
138
130
134
124
136
136
128
138
142
124
132
134
128
121
130
116
142
124
131
128
118
128
110
128
110
110
106
96
100
98
90
96
98
90
92
82
78
80
68
64
66
68
68
68
56
64
56
63
68
66
63
74
72
63
66
70
68
70
69
66
71
78
72
84
86
84
90
82
92
90
104
96
100
106
110
102
104
112
110
114
106
118
118
118
108
110
100
120
118
104
118
108
110
102
100
112
112
102
106
96
96
100
109
80
102
82
86
76
76
72
68
64
72
66
58
68
60
58
50
42
48
40
38
34
36
32
36
32
32
32
32
32
30
28
22
18
18
10
14
12
6
5
4
4
4
4
6
6
6
6
6
6
8
14
14
16
20
20
20
28
32
34
36
36
46
42
46
44
54
52
56
54
50
63
62
76
70
68
72
78
78
84
74
82
82
78
74
78
86
82
94
100
94
98
98
110
106
116
112
120
118
122
130
128
138
144
132
164
144
156
164
166
174
180
180
186
186
191
210
216
212
218
230
230
252
252
260
270
280
280
292
298
306
326
332
342
340
366
376
378
388
398
424
428
444
446
452
468
474
468
494
510
512
522
530
546
554
570
584
594
606
610
626
630
634
652
659
664
676
680
686
698
712
706
726
734
730
742
752
750
776
768
766
764
780
784
766
780
794
794
798
796
792
796
798
794
796
797
798
790
794
782
788
782
778
780
772
772
752
750
752
738
730
726
728
714
716
694
690
692
682
672
658
652
642
638
610
614
604
590
584
572
564
572
562
554
544
532
530
522
506
498
504
484
470
468
456
452
447
442
432
416
412
406
400
388
386
370
368
356
358
352
344
342
322
322
314
304
298
294
280
282
264
250
242
232
220
212
212
196
200
188
174
178
160
150
148
128
128
130
116
102
100
90
92
78
84
76
66
60
64
58
58
56
52
42
38
38
34
36
33
36
36
32
34
42
38
44
40
50
46
50
44
42
54
58
56
68
63
58
70
78
72
82
78
86
88
88
84
78
92
92
88
92
90
90
98
98
98
93
90
90
82
88
96
89
101
96
100
110
108
112
126
110
116
118
112
122
118
122
116
106
122
122
130
118
114
136
134
134
132
138
140
148
139
152
150
150
150
160
150
164
152
158
160
160
162
164
156
162
150
157
168
154
168
160
168
160
182
170
170
164
176
166
178
174
176
170
162
158
160
166
152
154
164
162
154
168
158
152
160
154
146
154
146
154
150
144
142
156
142
146
158
156
150
160
154
172
158
156
152
166
158
164
168
168
182
178
184
178
176
176
170
172
178
178
190
174
178
170
168
176
178
174
186
170
172
178
182
174
176
168
168
170
170
166
174
170
178
184
180
182
182
186
178
176
182
176
174
180
180
180
196
198
186
190
196
199
202
196
194
196
198
188
198
192
186
186
180
188
188
174
178
168
174
156
158
166
156
164
144
152
148
156
160
160
158
154
164
160
168
162
156
170
170
172
174
170
166
178
180
174
176
182
172
174
180
164
174
162
160
156
162
166
156
160
166
158
148
148
160
150
154
150
162
152
148
148
157
160
158
172
154
170
164
170
172
166
174
174
158
170
150
176
184
178
182
189
190
200
208
216
234
240
244
250
258
278
278
294
296
308
330
344
352
362
386
406
406
424
426
452
478
452
492
490
510
526
532
540
556
570
588
602
616
624
640
646
656
670
680
696
712
724
746
744
752
770
792
791
818
818
831
840
854
864
874
884
894
902
914
920
936
946
944
964
974
982
986
988
996
998
1008
1002
1010
1022
1012
1023
1020
1023
1023
1010
1012
1010
1008
988
996
998
992
974
980
966
972
944
956
952
940
938
936
934
918
906
912
902
900
894
876
866
860
864
856
844
842
828
828
822
816
794
786
786
766
766
760
746
734
724
724
722
710
704
694
690
692
674
658
646
646
630
622
612
590
588
578
568
562
552
540
536
516
512
488
482
460
452
444
434
420
408
392
384
364
362
352
338
328
306
292
286
256
264
244
236
224
208
198
194
186
164
158
154
136
112
107
88
83
80
76
60
54
60
54
46
50
44
36
38
36
30
32
32
32
34
40
38
44
44
60
58
53
58
70
66
82
78
74
74
78
86
96
98
104
94
114
130
118
112
122
130
116
134
122
129
134
126
132
134
142
132
142
148
154
158
156
164
168
158
154
168
164
162
156
172
170
180
173
176
191
188
194
178
182
172
180
170
182
178
180
192
176
188
174
182
180
190
180
186
180
184
172
180
182
176
186
166
174
178
171
184
180
176
176
170
166
166
174
164
168
166
164
157
160
166
168
164
162
170
164
164
154
166
170
174
170
160
158
156
146
138
124
98
78
60
30
14
6
6
6
4
4
4
4
4
4
4
4
2
4
4
4
4
4
4
2
2
4
4
6
4
4
4
4
4
4
4
4
4
4
2
4
4
4
4
2
4
4
4
4
4
4
4
4
4
4
4
4
4
4
4
4
4
4
4
4
4
4
4
4
4
4
4
4
4
4
4
2
4
4
4
4
4
4
4
4
4
4
4
4
4
4
4
4
4
4
4
4
4
4
4
2
4
4
4
4
4
4
2
4
4
4
4
4
4
4
4
4
4
4
4
2
4
4
10
22
34
46
60
102
116
144
182
205
236
262
302
328
380
424
464
516
558
600
630
692
744
784
824
874
920
964
1002
1023
1023
1023
1023
1023
1023
1023
1023
1023
1023
1023
1023
1023
1023
1023
1023
1023
1023
1023
1023
1023
1023
1023
1023
1023
1023
1023
1023
1023
1023
1023
1023
1023
1023
1023
1023
1023
1023
1023
1023
1023
1023
1023
1023
1023
1023
1023
1023
1023
1023
1023
1023
1023
1023
1023
1023
1023
1023
1023
1023
1023
1023
1023
1023
1023
1023
1023
1023
1023
1023
1023
1023
1023
1023
1023
1023
1023
1023
1023
1023
1023
1023
1023
1023
1023
1023
1023
1023
1023
1023
1023
1023
1023
1023
1023
1023
1023
1023
1023
1023
1023
1023
1023
1023
1023
1023
1023
1023
1023
1023
1023
1023
1023
1023
1023
1023
1023
1023
1023
1023
1023
1023
1023
1023
1023
1023
1023
1023
1023
1023
1023
1023
1023
1023
1023
1023
1023
1023
1023
1023
1023
1023
1023
1023
1023
1023
1023
1023
1023
1023
1023
1023
1023
1023
1023
1023
1023
1023
1023
1023
1023
1023
1023
1023
1023
1023
1023
1023
1023
1023
1023
1023
1023
1023
1023
1023
1023
1023
1023
1023
1023
1023
1023
1023
1023
1023
1023
1023
1023
1023
1023
1023
1023
1023
1023
1023
1023
1023
1023
1023
1023
1023
1023
1023
1023
1023
1023
1023
1023
1023
1023
1016
1004
1000
1000
990
994
978
978
980
970
966
962
964
969
966
972
956
956
960
946
944
934
926
924
906
920
902
899
904
890
886
886
873
872
856
844
836
829
826
802
784
768
742
746
728
712
708
694
698
664
672
682
672
668
654
652
656
648
642
644
640
634
650
632
642
634
640
640
648
634
650
634
644
646
650
646
654
650
656
640
648
654
656
658
652
650
652
646
650
652
644
622
616
586
580
556
542
546
524
502
500
490
468
472
462
446
450
436
438
430
424
430
424
424
426
426
418
424
416
414
418
420
426
428
420
428
422
422
426
432
444
440
442
442
434
445
440
434
438
454
452
452
452
452
458
456
456
466
468
466
472
462
458
460
448
460
462
464
462
458
454
454
460
460
460
478
466
462
462
474
472
480
478
484
500
482
482
480
490
490
486
488
482
476
494
474
472
466
464
454
458
448
464
436
432
434
416
425
416
404
410
400
398
392
392
386
380
380
376
366
370
360
352
352
350
326
310
290
302
284
292
274
264
253
244
232
234
232
226
208
194
192
186
182
178
174
171
158
158
152
150
142
138
124
124
110
94
94
88
100
86
82
86
66
64
66
66
58
56
60
50
72
58
64
66
64
74
70
66
72
66
76
70
82
80
86
88
90
92
94
86
78
74
72
77
66
62
54
60
50
48
52
56
50
40
44
42
38
40
40
48
42
52
46
52
56
60
68
58
72
62
74
68
62
63
64
66
74
74
66
74
68
78
66
74
74
76
76
94
86
104
94
110
100
116
128
136
132
140
146
150
150
160
168
174
176
182
192
194
202
200
196
212
210
204
216
204
214
206
206
216
220
214
218
214
220
236
244
252
258
258
268
260
268
246
270
284
286
288
308
288
310
317
330
338
348
362
374
376
378
368
398
406
420
438
450
472
476
492
494
506
520
522
532
548
562
578
586
600
616
624
632
660
672
690
698
696
716
724
744
744
754
756
762
756
748
744
732
720
718
712
704
702
696
686
692
688
680
678
666
656
658
650
654
644
636
636
614
622
612
606
602
596
582
570
566
568
550
554
542
534
522
522
524
512
492
496
486
460
456
450
438
432
420
428
420
408
396
380
378
374
360
356
342
322
318
312
308
298
290
284
262
266
252
248
244
230
212
206
182
172
164
152
144
142
132
114
122
118
80
82
68
54
36
22
8
6
4
4
4
4
4
4
2
2
4
4
4
4
4
4
4
4
4
4
4
4
4
4
4
4
4
2
4
4
4
4
4
4
4
6
10
14
20
24
28
36
58
52
61
70
86
88
93
104
122
124
138
148
162
170
192
208
218
226
246
260
274
272
286
292
286
290
304
306
318
330
332
338
342
358
366
364
376
390
394
396
396
386
380
372
357
332
322
342
292
266
254
218
194
142
118
96
72
62
32
22
12
6
6
4
4
4
4
4
4
4
6
16
20
34
46
66
76
92
112
160
160
182
200
216
230
256
269
292
332
330
352
372
402
424
446
456
478
504
526
546
554
558
592
610
626
636
656
666
674
698
702
722
728
742
746
760
762
776
772
782
770
798
808
812
818
814
824
830
844
852
847
866
858
856
866
869
872
880
884
880
882
886
890
902
906
896
908
890
892
894
898
908
900
896
890
904
894
884
890
890
886
886
876
880
872
844
828
814
794
780
772
748
742
732
726
714
698
694
684
674
674
668
654
646
640
644
630
622
638
620
616
612
606
618
610
594
604
602
600
584
580
590
586
582
588
582
572
576
564
562
564
557
558
552
542
546
536
534
534
538
534
522
524
520
516
514
522
506
500
504
490
516
508
506
504
496
508
498
520
506
502
492
490
490
500
488
476
480
474
470
470
466
480
472
458
472
461
470
462
460
460
454
448
456
454
458
462
474
468
470
472
478
494
490
500
504
500
508
520
530
532
544
546
548
562
574
578
596
598
618
620
632
646
646
652
668
678
698
700
718
730
732
746
742
770
774
788
786
800
810
822
816
842
844
860
862
863
876
864
884
892
906
914
918
912
918
922
922
932
944
948
946
944
948
970
950
954
956
962
959
950
936
952
944
942
950
928
930
934
920
910
912
908
898
896
880
880
870
862
856
854
847
838
830
820
816
803
804
798
788
778
764
758
750
740
740
728
726
720
708
704
687
686
684
664
660
650
640
628
612
604
596
586
578
564
554
542
516
516
506
506
472
472
450
444
432
420
406
398
380
366
356
348
344
324
322
302
304
282
266
264
260
236
234
218
214
196
194
178
168
166
156
144
138
124
104
104
86
76
78
68
54
56
52
40
40
30
28
20
12
8
5
4
4
4
4
4
4
6
4
4
4
4
4
4
4
4
4
4
4
4
6
10
6
14
14
22
26
30
28
36
32
35
38
36
40
48
54
54
60
66
68
68
68
70
84
82
84
80
86
86
86
96
92
100
106
96
106
96
102
106
114
103
110
102
106
110
104
106
118
114
110
108
118
114
110
115
120
110
118
126
106
100
100
98
102
102
112
104
96
94
102
100
96
92
112
90
94
86
82
80
70
66
78
78
68
64
72
68
56
54
52
50
48
46
50
48
42
38
36
34
38
32
36
36
30
30
30
24
30
28
24
26
26
32
26
32
30
34
32
38
36
48
38
40
44
40
44
50
48
52
56
62
64
62
56
64
58
60
70
63
58
63
60
70
72
72
70
70
72
72
80
72
84
74
62
62
64
56
58
54
52
50
48
46
50
44
46
54
44
48
42
50
58
44
46
58
56
66
66
56
72
60
64
64
58
70
62
63
66
58
70
63
64
64
62
68
64
72
78
78
80
68
66
74
66
70
72
78
78
78
78
63
78
78
72
72
78
63
68
54
66
48
42
46
42
40
32
34
34
26
26
22
26
18
18
14
12
12
12
13
14
10
14
17
16
18
22
20
24
28
26
32
30
32
38
38
42
46
52
50
66
60
72
66
72
66
80
90
96
90
106
98
108
114
124
141
144
138
150
150
158
162
170
176
186
184
184
194
198
206
214
214
228
234
237
242
254
248
264
270
274
286
286
292
304
324
328
333
342
364
366
376
382
396
402
418
430
440
450
468
464
456
484
498
498
516
526
534
534
542
550
562
560
573
582
590
596
588
594
616
604
612
622
620
620
626
637
634
636
644
656
636
642
666
660
670
678
680
686
670
680
674
680
684
680
676
666
672
658
666
658
654
656
660
644
650
650
638
636
624
622
630
606
610
608
608
612
616
604
606
592
588
584
584
575
562
566
564
554
558
540
538
542
532
532
516
522
514
512
490
472
488
478
460
468
450
438
440
432
424
416
402
390
384
376
366
368
340
334
322
314
298
286
274
264
252
252
236
220
212
192
192
172
162
160
154
144
132
136
120
120
108
114
114
104
112
106
96
106
100
100
112
116
116
114
118
128
124
126
125
136
132
130
138
140
138
138
138
142
150
138
150
140
162
156
168
159
172
170
162
168
178
170
178
178
176
182
180
190
188
180
180
180
174
176
184
186
182
176
188
182
176
188
186
186
190
194
188
188
194
186
180
174
186
191
182
186
172
190
196
186
196
204
212
212
206
198
192
214
200
204
202
196
196
198
196
212
202
204
202
192
194
194
188
186
188
190
196
176
184
178
186
186
180
188
186
180
174
176
180
168
176
182
190
190
188
180
188
194
190
184
200
196
191
188
200
188
188
196
198
198
196
204
202
196
204
200
212
212
214
208
204
214
212
220
220
230
224
238
242
234
237
238
238
246
254
250
260
256
264
262
266
269
276
280
282
282
292
282
280
286
294
294
292
292
292
284
290
304
292
286
294
292
298
288
286
284
284
296
282
284
296
288
304
278
302
304
300
299
310
298
314
310
300
312
312
302
312
306
312
308
308
320
316
310
302
302
304
299
304
294
296
298
292
296
298
306
294
300
302
301
292
284
280
280
282
274
284
270
272
270
274
252
258
262
252
251
256
249
244
242
242
232
222
220
218
228
204
212
196
196
188
184
178
176
168
160
162
150
146
138
148
130
106
106
82
72
78
64
64
50
38
34
34
26
30
24
32
30
32
34
34
46
50
56
64
66
66
74
84
84
106
109
134
134
152
156
162
178
186
200
208
226
224
242
270
246
268
286
288
306
322
326
336
360
366
386
386
409
410
430
446
458
460
478
500
494
520
518
538
562
570
590
602
602
614
640
654
652
668
688
696
706
726
728
758
760
780
796
798
800
826
838
840
874
882
890
904
930
924
948
962
962
974
974
998
996
1008
1004
1016
1018
1023
1023
1023
1023
1023
1023
1023
1023
1023
1023
1023
1023
1023
1023
1023
1023
1023
1023
1023
1022
1020
1006
1006
994
996
980
969
970
952
946
938
920
918
904
884
888
872
854
840
844
836
820
812
798
788
794
764
760
760
742
734
730
722
710
690
692
688
676
666
650
636
630
630
618
616
596
598
590
596
596
578
580
578
568
564
546
554
562
550
554
552
552
554
540
540
538
526
534
532
520
522
510
498
502
492
488
486
474
484
462
484
466
452
446
452
440
428
432
420
412
412
408
414
382
396
386
372
386
382
374
376
358
368
360
358
346
346
334
344
324
320
320
314
322
324
314
314
308
310
308
314
302
312
298
312
308
316
306
300
288
308
304
300
298
310
300
302
298
306
298
306
306
298
301
318
292
298
308
298
292
294
304
302
304
294
300
298
294
298
300
302
296
298
284
284
282
284
276
270
268
272
264
262
272
260
266
262
260
268
256
260
262
262
252
260
253
256
246
236
242
246
246
250
254
250
246
252
240
240
230
224
222
224
210
214
222
206
216
212
198
201
196
206
172
188
178
176
174
172
182
170
174
162
166
156
150
146
130
134
138
130
118
124
108
112
100
102
102
104
94
104
94
98
92
88
86
80
80
88
88
84
88
88
84
92
90
94
90
100
92
92
92
94
100
84
92
102
94
106
91
96
108
102
94
96
92
94
92
94
102
83
84
78
84
66
63
68
64
62
58
60
52
54
52
48
52
50
44
42
42
40
42
42
44
56
48
44
40
40
38
39
38
36
38
40
36
36
34
38
38
36
36
42
40
38
40
44
40
44
48
54
66
59
72
72
74
78
92
90
94
92
100
102
90
110
116
108
114
104
112
108
112
122
122
122
122
122
120
118
116
120
118
128
122
116
116
116
124
128
120
134
134
122
122
130
126
128
118
132
126
134
128
126
132
140
134
146
132
138
138
148
152
156
150
158
152
154
164
164
172
168
164
172
157
172
170
176
184
184
196
198
194
204
216
226
232
244
252
252
278
278
278
294
294
308
324
332
336
354
356
382
384
398
420
430
444
444
462
478
476
488
516
506
522
550
554
564
588
596
612
612
636
634
668
678
690
698
712
728
744
758
762
776
796
798
812
820
822
831
846
842
862
860
874
882
892
896
890
904
914
914
918
920
910
916
926
920
916
916
922
908
920
910
904
912
904
908
902
890
884
886
890
870
864
862
840
842
844
834
820
816
814
800
802
788
786
770
756
754
754
736
738
736
728
710
696
694
692
686
678
658
654
626
634
624
622
622
614
604
600
584
586
574
568
564
562
546
540
526
522
512
506
506
488
478
470
470
458
444
442
434
428
410
394
394
384
370
368
342
347
338
336
319
324
316
304
308
292
276
264
250
246
240
224
224
204
191
188
184
180
166
156
144
140
118
118
118
100
96
88
86
82
66
64
64
52
58
56
46
42
48
40
36
38
36
36
40
38
42
37
36
48
48
42
50
41
40
40
44
44
52
46
52
50
56
62
68
66
70
74
82
68
84
78
90
94
86
96
106
108
118
114
120
136
142
142
140
144
158
164
168
184
184
182
190
186
194
208
204
212
216
222
210
210
224
224
216
216
218
226
232
226
234
228
228
230
238
238
248
232
232
238
246
246
244
242
242
236
240
232
238
244
232
240
222
224
224
228
232
224
222
216
214
216
218
222
242
216
226
208
216
204
220
220
224
220
224
222
228
230
226
218
226
224
216
224
214
220
212
202
206
214
212
212
214
208
196
194
206
202
202
198
192
196
198
202
196
204
198
202
200
200
198
184
196
206
202
202
204
190
196
192
176
184
188
174
190
186
174
184
172
174
174
186
174
166
156
162
162
156
154
158
160
156
154
162
162
162
156
154
150
148
166
146
162
150
160
160
154
154
166
156
156
162
158
176
152
156
158
142
164
157
166
156
150
155
162
166
162
164
156
168
157
158
166
170
164
168
172
174
170
170
187
189
188
180
192
188
182
184
188
184
186
174
184
182
184
178
172
188
184
178
172
166
170
166
166
184
174
176
176
180
170
178
192
184
174
180
172
172
168
170
174
166
158
162
152
156
160
156
160
170
160
156
160
166
156
158
156
166
170
166
162
162
172
176
173
176
180
186
192
186
190
198
218
204
216
212
228
238
232
253
250
262
264
286
272
296
288
302
316
318
318
334
346
356
362
364
380
384
404
394
426
429
434
434
448
452
466
480
484
496
502
498
514
534
532
554
552
566
568
562
580
596
610
614
620
640
648
656
660
684
698
710
710
744
732
740
766
772
776
798
810
802
812
820
838
840
850
856
858
860
860
858
864
872
870
874
877
884
882
884
888
890
898
900
876
884
888
880
894
886
892
890
880
882
916
890
890
886
880
872
864
862
874
858
848
846
848
836
832
825
850
822
812
802
798
788
782
786
774
764
758
750
740
747
740
732
732
722
714
718
710
704
682
674
672
648
660
644
642
634
620
612
588
605
582
582
570
558
550
536
524
512
500
492
482
472
454
454
450
444
428
413
414
406
378
372
364
350
342
340
324
314
314
296
284
288
280
269
276
250
246
230
222
220
214
210
191
202
188
178
170
178
162
156
142
156
136
128
122
124
120
122
118
98
110
96
106
102
92
84
84
82
80
70
68
60
63
66
74
62
64
54
66
56
58
54
54
60
66
50
58
70
70
66
66
70
84
76
86
82
88
90
100
96
100
114
108
104
106
108
116
112
118
114
128
132
128
148
130
140
144
140
156
146
156
152
164
170
172
172
176
191
196
202
212
220
218
216
210
238
244
230
244
266
260
262
264
268
282
268
274
288
284
288
294
304
302
319
318
324
326
330
344
346
346
350
352
349
352
344
366
360
370
360
380
378
380
382
386
394
392
388
392
392
396
384
396
394
402
410
394
394
402
398
404
398
398
396
392
390
396
388
394
392
384
366
378
378
382
376
370
366
376
364
364
358
352
344
344
342
326
336
332
330
320
324
320
324
320
314
316
316
292
318
306
306
302
310
308
304
302
310
290
299
290
288
286
278
268
270
270
260
266
262
260
256
246
242
250
248
250
232
242
228
218
210
212
216
208
198
202
196
194
190
194
188
184
168
176
170
164
174
166
162
160
158
146
144
136
148
138
142
136
132
122
108
124
116
124
118
120
130
108
132
122
126
136
134
134
136
132
142
140
134
142
154
162
158
158
176
152
158
160
166
178
180
166
174
174
170
172
176
194
188
188
198
204
196
204
200
214
208
212
216
212
222
232
220
242
234
240
254
246
244
258
250
260
264
262
254
270
258
274
270
282
274
280
274
284
294
292
298
302
304
294
304
304
302
300
312
304
298
310
320
318
328
328
330
330
326
342
350
346
348
360
350
364
372
380
386
392
398
410
412
434
442
442
440
452
474
478
488
500
516
520
532
550
556
572
572
586
596
600
614
632
634
642
658
672
686
686
712
704
722
740
746
750
768
766
788
786
798
812
826
832
846
846
852
876
880
896
882
896
910
906
912
918
924
936
940
930
934
944
940
956
966
966
968
958
956
946
956
958
962
954
968
952
948
948
938
938
934
930
924
920
906
892
888
886
872
886
864
860
850
838
828
828
826
808
784
794
776
764
745
746
748
728
722
728
708
702
706
694
678
684
664
662
640
628
632
616
614
594
602
586
570
556
556
548
532
524
518
500
488
466
460
458
440
428
430
416
406
398
382
374
360
340
348
328
318
306
286
286
282
272
253
242
244
226
230
220
204
202
200
180
180
174
160
152
140
156
128
136
115
110
110
102
102
86
98
84
82
84
78
68
84
60
76
70
74
74
82
76
80
76
90
84
82
74
92
86
86
102
86
94
106
110
98
108
100
96
110
100
96
102
104
106
104
100
106
104
100
112
112
106
120
116
112
110
130
124
128
128
134
128
140
140
141
140
152
148
148
160
144
157
162
160
148
154
152
148
134
152
148
156
148
152
146
148
148
136
134
140
138
136
140
128
142
110
132
138
138
138
118
122
128
116
112
112
112
110
110
100
110
106
102
100
104
104
98
90
92
90
77
92
92
94
89
92
85
90
86
98
86
102
76
76
82
86
86
76
86
78
70
72
72
80
82
78
70
76
76
66
60
54
58
62
63
58
56
56
58
64
56
60
68
58
72
66
68
76
62
66
72
72
76
88
88
78
76
92
85
90
86
94
86
84
86
92
90
92
86
90
82
88
96
92
102
98
93
100
102
98
112
104
106
116
112
116
130
118
134
134
130
118
134
134
134
122
128
122
136
122
122
126
128
128
124
126
120
130
130
122
124
120
122
122
118
120
118
122
108
122
120
110
116
104
102
104
96
114
104
94
108
88
88
94
96
98
106
104
106
102
118
114
120
116
114
130
112
126
132
141
138
146
144
148
146
152
166
154
152
154
170
164
176
178
176
150
194
188
202
198
214
204
204
216
222
230
224
226
236
222
228
252
246
246
248
252
250
244
250
246
246
252
242
248
238
242
242
250
236
242
238
242
246
242
242
230
240
228
226
234
244
248
220
240
242
236
238
246
248
234
246
252
254
246
250
248
262
248
258
260
266
262
274
268
294
268
278
288
286
296
304
314
328
328
334
342
346
360
372
394
396
412
418
420
430
454
462
476
488
506
510
520
542
556
564
578
596
588
612
630
644
648
666
668
684
688
703
724
724
740
746
764
750
772
786
802
812
820
826
836
838
848
864
874
884
886
898
902
894
908
910
908
918
914
924
914
928
930
922
928
938
926
928
926
914
920
922
918
932
926
918
902
909
906
914
900
902
900
892
876
873
868
856
856
852
844
850
838
832
832
828
828
814
818
806
806
800
788
806
774
772
756
750
752
736
728
732
726
714
712
692
694
690
674
674
648
652
636
632
622
608
600
590
574
574
560
546
526
534
522
498
492
482
472
452
448
438
422
418
392
392
390
366
358
348
338
338
310
310
308
290
286
270
274
268
258
254
254
248
238
234
222
214
216
214
204
188
212
198
188
186
182
188
180
174
183
162
168
156
152
160
156
152
152
154
152
150
142
138
146
144
132
140
130
134
130
124
123
136
126
120
116
120
124
122
112
104
112
94
106
92
98
98
104
86
98
92
102
104
102
98
106
98
108
107
124
114
108
108
108
106
104
116
112
128
120
128
122
124
120
124
138
134
130
134
130
128
140
142
142
144
134
146
142
136
142
140
130
136
138
132
140
136
146
136
134
152
150
144
152
154
144
144
156
156
154
164
162
170
162
168
174
188
174
182
180
188
184
190
194
188
190
184
186
194
201
196
208
206
208
202
202
210
206
204
226
205
214
219
214
212
212
228
220
222
222
224
214
216
226
244
210
206
206
220
206
202
210
198
202
206
200
208
196
200
198
186
202
204
198
208
206
202
204
216
208
218
220
230
224
216
216
220
214
226
218
226
224
234
234
218
230
238
238
230
230
238
242
238
249
246
253
258
262
266
262
258
268
272
270
284
274
284
272
268
280
290
278
280
266
282
292
296
286
296
284
302
284
288
282
274
282
288
280
292
274
274
272
274
276
274
282
280
274
256
282
272
276
272
280
286
270
286
276
282
278
272
278
282
278
266
268
270
260
262
266
274
264
262
262
260
256
260
250
266
236
258
248
250
250
258
252
260
252
258
262
256
262
270
264
274
268
270
284
268
276
280
286
286
296
294
294
296
308
308
316
322
316
322
334
328
348
350
364
381
364
390
396
402
416
414
430
436
434
452
462
470
474
490
492
516
520
526
534
558
558
574
578
594
586
602
608
628
628
644
660
668
670
686
706
700
704
720
724
742
746
736
758
772
766
776
784
786
790
806
802
816
814
822
842
844
838
832
846
842
846
856
858
868
858
870
884
874
882
884
908
892
904
906
910
909
918
920
928
910
928
920
936
926
932
922
920
920
912
907
906
906
896
898
882
874
868
870
860
856
840
842
826
818
814
810
794
786
784
764
766
740
748
750
744
724
718
703
698
692
686
678
672
664
648
652
648
626
614
604
600
592
584
570
570
570
540
518
524
508
508
494
498
472
468
458
454
446
442
430
430
420
414
408
400
382
374
362
358
356
344
336
330
322
304
292
298
276
264
264
252
244
234
224
212
204
206
200
184
174
174
160
154
132
130
116
100
90
82
80
62
60
48
52
44
40
35
28
28
22
18
18
16
8
10
6
4
6
6
6
10
8
12
10
10
12
12
10
16
22
20
28
30
32
36
50
46
58
54
62
68
68
64
70
78
82
88
98
84
100
98
104
104
98
104
90
90
74
80
84
82
68
68
68
60
66
63
72
63
64
62
58
50
68
54
56
44
52
52
48
52
50
56
62
56
58
54
54
58
67
60
66
64
60
64
62
70
86
80
92
96
94
88
90
100
96
92
98
98
110
102
102
108
102
104
110
108
110
120
112
112
106
104
110
118
118
116
112
118
130
118
130
134
132
136
126
126
136
130
136
130
138
130
136
136
142
132
140
136
136
124
132
134
142
148
130
138
122
122
130
134
132
140
132
134
140
134
138
132
110
128
136
126
142
130
134
134
132
144
148
142
148
134
128
132
122
136
120
128
120
122
106
118
116
112
104
100
96
106
94
104
102
90
104
100
94
110
114
112
116
112
118
130
130
124
130
122
120
132
124
120
124
136
130
118
116
130
136
124
130
136
132
122
122
122
122
125
118
116
122
128
118
122
126
118
140
118
124
126
118
126
134
132
138
142
138
136
144
156
160
164
166
164
168
168
166
178
170
184
174
178
184
178
180
180
188
184
168
188
190
186
192
190
190
192
204
210
212
208
222
228
230
232
234
248
244
244
254
256
270
278
286
296
294
302
308
326
322
334
350
360
360
380
372
400
406
426
428
440
456
464
482
500
518
528
528
544
570
566
590
598
616
634
636
658
680
676
710
722
730
748
744
774
807
794
810
826
844
846
852
878
884
890
900
910
924
930
928
958
950
962
964
974
974
984
992
1001
980
1010
1022
1020
1023
1020
1023
1023
1023
1023
1023
1023
1023
1023
1023
1023
1023
1023
1023
1023
1023
1023
1023
1023
1020
1020
1020
1004
1014
990
987
980
992
968
968
958
952
940
922
920
912
902
896
896
886
876
868
864
858
842
834
834
818
816
810
796
792
774
774
756
760
746
748
734
730
726
716
712
703
688
684
668
658
652
648
644
636
612
616
612
604
612
592
586
586
566
554
564
548
550
544
532
523
520
504
506
496
480
474
472
480
470
446
440
430
429
424
410
404
398
386
380
372
362
354
354
332
316
320
306
301
298
286
280
272
276
280
262
274
270
260
262
250
248
244
242
237
240
242
238
228
236
236
234
236
230
236
214
230
238
228
234
220
218
220
222
218
232
228
220
240
240
240
254
232
244
254
258
260
270
270
276
278
298
290
292
302
306
306
316
316
310
300
314
316
326
324
326
318
318
326
320
318
326
318
312
320
312
300
308
300
304
300
290
298
288
294
284
298
294
292
278
264
280
276
262
270
260
266
268
240
262
250
246
244
244
240
238
228
234
214
220
224
230
220
224
216
218
228
216
220
204
202
198
202
198
186
178
184
188
178
191
188
180
184
170
178
166
166
160
160
166
170
172
157
164
168
166
156
162
164
168
166
154
162
170
150
156
158
142
142
150
138
146
138
146
148
140
142
136
136
122
128
122
116
116
114
118
110
118
110
110
106
106
110
100
92
107
96
80
98
94
98
90
96
94
96
90
92
84
88
82
74
76
66
64
64
60
60
63
64
62
58
62
74
60
62
66
68
70
60
72
68
72
74
76
80
78
80
84
70
86
82
90
74
88
82
68
80
74
68
72
64
72
72
66
88
72
72
70
63
62
64
72
64
72
72
78
78
80
80
96
90
90
90
98
100
94
100
122
120
116
114
120
132
116
134
148
128
140
152
144
164
152
156
148
144
152
160
158
154
164
160
170
170
172
176
172
186
176
190
190
191
184
192
191
191
210
228
220
206
216
212
196
220
222
208
226
216
228
226
228
230
234
244
260
252
256
266
264
274
272
278
274
282
288
294
300
308
312
326
340
350
360
356
376
376
392
400
412
416
434
440
454
462
470
490
492
506
502
522
520
534
536
540
556
558
566
574
574
578
588
602
596
600
616
604
620
622
632
634
638
634
650
654
662
666
666
666
676
682
682
690
686
702
702
694
714
728
724
742
740
744
750
752
764
766
774
774
794
774
778
780
782
794
790
794
806
800
806
804
810
816
822
824
802
808
814
796
812
810
820
814
820
816
806
806
798
802
806
798
798
788
764
790
774
778
784
772
762
776
762
762
762
754
752
762
734
752
726
730
714
710
710
698
710
692
690
682
674
662
662
644
638
632
624
616
618
598
602
602
588
580
564
558
558
542
546
532
528
510
494
492
492
482
480
460
458
452
450
448
438
430
424
414
412
400
394
380
374
374
368
358
348
341
342
328
334
318
308
296
298
292
288
278
260
260
252
226
234
220
218
210
194
190
176
178
176
142
164
152
156
152
144
150
146
140
140
134
134
138
130
138
132
118
118
124
122
114
121
114
112
98
136
126
126
124
136
124
136
122
120
128
130
134
130
148
142
144
152
152
150
152
164
144
142
156
156
148
160
162
162
166
170
168
178
174
184
178
174
180
182
188
194
188
202
198
200
204
218
220
226
226
238
232
236
254
242
246
248
250
254
256
264
256
258
265
264
272
260
264
246
252
256
250
240
234
226
230
198
212
200
200
204
190
190
186
166
170
156
156
150
140
130
123
124
116
106
112
96
96
90
77
78
72
60
58
54
52
46
49
44
50
52
46
52
50
60
60
58
54
54
68
66
74
72
74
72
78
80
84
84
94
94
102
92
100
88
98
110
108
116
106
102
118
126
134
128
128
122
132
134
136
134
157
144
156
156
156
156
166
184
186
182
196
202
200
196
202
210
220
214
212
210
222
236
232
230
240
238
232
236
237
238
234
220
246
246
236
248
240
240
240
238
254
250
244
244
232
246
240
236
236
248
242
230
244
242
246
236
242
244
236
234
246
238
230
242
236
236
224
224
222
205
224
216
222
218
208
198
198
198
190
184
191
182
172
166
168
156
162
164
148
144
136
136
124
128
130
124
112
118
110
116
98
102
106
100
104
114
114
118
120
124
122
142
134
150
152
148
162
172
188
190
196
208
210
210
234
236
238
256
254
272
264
280
290
312
319
346
348
372
372
394
396
418
434
434
448
466
470
490
506
520
524
534
550
566
568
596
596
606
618
632
646
656
668
692
698
738
734
746
768
772
780
816
820
830
838
848
868
882
894
906
912
916
936
936
946
960
966
962
970
978
1002
988
994
1002
1020
1023
1016
1023
1023
1023
1023
1023
1023
1023
1023
1023
1023
1020
1018
1022
1008
1015
994
1000
986
988
974
980
968
956
950
949
936
942
930
928
922
926
910
876
880
888
878
882
876
840
836
844
824
814
798
800
784
760
758
738
749
734
716
708
702
696
680
652
654
638
636
616
602
596
598
596
580
574
562
554
548
546
528
516
518
498
500
478
490
468
472
462
462
440
438
432
412
406
400
386
376
374
374
365
358
350
338
334
322
318
319
318
300
292
278
282
270
260
250
254
254
238
234
236
220
216
206
220
188
194
174
174
174
166
164
166
156
148
144
144
138
138
128
136
122
118
123
104
106
114
108
110
110
110
106
100
110
106
116
124
110
104
96
112
114
108
128
122
106
112
130
112
122
128
122
122
122
124
130
130
132
140
134
140
146
152
152
172
162
173
168
180
182
178
186
186
184
190
184
198
192
192
198
190
204
198
196
212
191
204
210
196
200
192
186
196
198
190
190
180
182
188
182
186
182
172
174
174
172
170
178
164
180
170
166
176
174
172
164
162
166
156
154
168
162
166
156
166
158
166
168
164
164
166
174
168
162
190
178
168
168
170
168
191
182
184
168
178
188
178
186
188
178
164
166
172
170
168
166
164
162
158
166
170
156
164
162
146
144
148
142
144
134
142
136
140
136
126
134
132
124
114
124
126
110
106
106
104
112
106
124
104
110
112
112
110
116
114
116
112
122
122
120
120
118
110
116
138
106
141
136
138
132
132
152
142
136
146
138
144
148
148
150
150
168
162
154
158
156
162
168
174
152
170
182
182
188
180
186
186
188
202
204
200
204
202
212
206
204
206
210
216
210
218
214
212
218
216
222
228
228
226
222
218
222
222
220
218
222
212
210
214
206
238
214
226
214
226
218
222
232
221
226
228
230
234
234
236
232
244
238
236
254
250
248
238
240
246
246
244
240
248
246
260
258
252
256
258
246
270
256
246
240
244
244
240
240
242
232
240
238
244
232
236
244
222
226
224
226
236
222
226
232
228
234
238
230
246
244
242
244
234
256
262
258
276
282
286
284
294
314
316
328
342
350
362
354
368
380
388
398
408
414
436
440
462
460
486
488
492
508
518
536
540
548
562
560
574
586
592
594
604
620
634
628
652
650
664
666
674
680
672
680
688
690
676
686
714
708
690
710
716
728
728
730
738
738
756
752
752
762
772
766
774
784
798
796
806
806
824
814
822
830
831
828
840
836
846
842
850
842
846
838
854
844
848
858
834
846
836
830
836
834
826
832
828
820
822
816
818
814
804
808
794
786
790
778
776
784
764
765
760
770
742
750
744
750
742
722
724
710
710
706
696
686
684
678
670
652
638
644
646
638
630
618
608
614
602
588
592
576
568
575
562
552
556
542
540
526
510
508
502
494
477
466
464
448
438
444
432
414
414
402
402
382
372
372
358
344
332
336
326
326
320
308
300
298
294
292
278
276
264
254
259
258
244
240
232
232
226
214
216
202
206
200
200
194
174
188
180
186
182
172
168
174
174
168
162
172
172
172
164
156
158
146
168
158
168
172
164
162
158
172
174
168
186
184
180
178
186
174
174
168
180
182
186
182
180
178
184
170
188
184
192
184
202
194
192
200
204
198
220
194
218
218
232
238
230
236
228
236
232
238
248
250
244
256
258
266
252
256
264
262
268
262
272
268
256
256
266
264
258
254
252
246
240
236
252
230
216
214
194
200
188
162
176
168
164
150
154
140
134
138
138
136
124
128
114
112
124
96
114
126
102
106
98
110
108
108
110
104
110
102
98
104
96
92
102
86
92
92
86
92
84
80
90
78
80
84
86
88
74
90
78
80
80
90
92
86
94
100
100
96
102
98
116
102
102
98
108
106
110
118
112
114
124
112
130
138
128
140
140
136
132
134
140
140
132
136
130
128
136
148
136
146
144
148
142
150
154
142
154
152
166
158
160
176
176
174
182
187
190
194
198
204
200
198
220
214
206
224
214
216
218
226
222
234
230
238
226
214
238
238
234
236
240
242
234
244
236
230
246
242
248
248
238
236
242
220
234
222
224
222
214
214
221
201
214
206
208
212
204
204
194
194
198
194
190
196
192
190
196
186
188
188
184
190
190
182
182
176
178
178
178
166
170
172
162
176
173
172
174
172
160
168
160
170
166
166
172
166
168
172
184
190
189
191
196
198
198
206
222
232
226
246
248
262
270
286
308
316
318
328
350
358
373
380
386
412
422
428
444
474
472
490
508
528
550
558
578
590
602
620
634
650
668
688
702
726
724
756
774
792
794
816
830
836
856
860
876
892
904
924
936
934
950
966
975
992
992
1004
1014
1012
1018
1023
1023
1023
1023
1023
1023
1023
1023
1023
1023
1023
1023
1023
1023
1023
1023
1023
1022
1016
1014
998
1000
990
992
980
984
972
962
956
932
926
920
904
902
898
877
874
862
856
846
830
824
810
810
784
784
778
766
750
732
734
716
706
692
688
680
678
666
652
644
634
634
618
608
606
582
592
584
578
554
562
548
542
546
538
522
518
514
504
490
480
478
468
466
450
452
446
432
426
402
412
398
398
372
374
356
340
332
330
322
316
294
296
280
270
266
250
240
236
212
202
198
198
192
178
170
170
154
148
152
140
138
130
120
108
108
102
90
66
84
76
72
60
52
60
50
46
44
42
40
44
34
34
28
26
26
28
28
34
28
34
34
36
40
46
46
50
42
44
56
44
58
56
64
68
72
76
82
80
92
88
94
94
106
112
114
118
122
132
128
138
154
150
162
146
160
174
168
160
172
174
180
184
180
186
192
184
186
188
202
186
191
182
190
174
184
178
174
182
186
178
188
174
178
172
172
170
180
176
176
164
166
164
168
174
174
184
190
186
191
204
205
210
208
218
224
234
230
224
228
232
234
236
244
236
240
268
258
250
256
252
254
264
252
274
256
262
264
262
268
274
268
270
276
272
264
270
270
266
266
254
264
260
249
262
246
248
248
258
254
244
242
238
226
216
218
216
216
210
216
206
222
198
202
210
212
202
200
196
188
202
194
188
202
188
184
182
170
192
184
194
184
184
188
184
180
186
184
194
178
196
192
192
206
210
204
192
208
224
218
216
226
224
230
224
226
236
237
236
238
236
238
244
230
242
236
226
238
234
238
230
244
243
240
240
240
240
244
240
242
240
230
238
236
214
238
250
236
240
236
250
234
250
236
248
242
250
242
254
238
244
250
253
250
256
260
252
253
258
272
258
278
278
280
284
282
282
282
292
286
296
290
298
296
302
320
310
302
316
310
308
324
312
312
316
316
324
316
316
318
330
336
328
326
336
326
334
330
318
312
316
314
317
314
320
304
312
315
308
298
304
302
284
294
280
282
280
272
280
286
267
270
276
264
272
268
274
278
268
278
288
276
272
276
284
288
288
294
308
310
312
318
328
334
342
344
344
348
354
358
372
386
378
402
406
408
424
436
458
456
486
486
492
522
532
538
568
568
575
592
616
628
646
654
668
680
696
704
722
734
746
758
778
776
798
810
822
831
852
864
868
888
886
898
914
912
930
932
940
954
974
964
970
996
990
994
996
1002
1006
1006
1012
1012
1020
1016
1020
1016
1019
1010
1018
1006
1008
996
998
992
984
970
958
966
948
944
944
912
906
906
886
880
862
852
854
836
810
792
792
764
756
750
738
722
716
700
680
680
669
662
644
628
618
606
598
592
576
562
548
554
530
528
514
504
492
478
470
466
458
432
434
422
404
404
394
388
372
360
338
340
330
318
314
292
278
262
260
248
238
224
218
200
196
174
186
166
154
144
130
132
120
110
100
96
78
88
72
62
56
52
56
54
44
52
40
36
36
38
44
38
46
52
42
52
54
58
64
70
72
72
72
78
82
92
94
98
110
114
108
120
124
138
124
140
146
146
148
136
134
132
138
134
138
138
128
134
128
122
134
128
128
112
112
118
92
104
102
102
104
108
102
96
98
106
100
91
100
86
98
92
104
92
82
84
94
72
84
88
82
96
88
92
90
83
86
86
92
84
86
90
80
80
84
88
82
88
96
88
98
106
86
96
98
100
98
94
90
100
104
94
80
98
106
98
104
104
88
99
100
102
106
106
108
98
110
108
124
110
118
118
124
108
110
118
112
112
126
124
124
132
148
134
146
144
144
142
144
144
148
150
150
150
148
150
160
158
158
150
162
170
170
168
166
172
178
176
172
178
182
184
200
188
198
200
200
208
220
222
232
240
238
220
236
242
236
244
242
246
244
262
244
258
252
258
268
256
250
238
244
242
238
246
242
218
232
226
246
220
224
216
210
216
204
208
202
196
202
188
188
186
188
174
176
170
176
166
166
162
152
146
156
142
148
142
140
126
132
130
136
122
124
128
120
110
120
124
116
116
116
116
112
114
124
116
124
122
124
124
128
134
108
120
106
104
108
104
110
93
106
98
88
86
78
84
84
74
76
82
66
74
70
82
72
88
82
88
96
104
94
120
102
102
110
114
112
120
112
130
120
126
134
122
130
130
125
136
142
128
126
122
134
140
140
146
140
148
158
164
162
162
166
170
182
184
200
202
202
204
210
200
220
230
242
234
252
256
264
268
278
284
296
288
308
314
320
344
350
354
368
378
381
396
410
414
430
428
440
466
476
494
514
522
536
560
570
582
606
628
638
662
670
690
700
728
742
752
770
794
802
820
848
846
864
886
900
904
926
932
934
956
964
984
978
998
1002
1008
1022
1023
1023
1023
1023
1023
1023
1023
1023
1023
1023
1023
1023
1023
1023
1023
1023
1023
1023
1023
1022
1023
1023
1006
1002
1010
998
1002
990
980
976
980
980
966
960
958
942
950
938
928
926
922
924
920
918
912
910
898
902
886
886
866
866
846
838
830
832
818
804
800
786
774
772
766
758
736
734
716
700
680
692
680
666
664
646
636
632
620
610
604
602
596
578
568
562
560
522
542
542
528
510
508
502
492
474
476
466
462
438
447
434
426
414
408
398
396
393
392
374
362
362
344
342
334
326
306
314
302
280
288
270
254
242
230
222
214
212
196
194
176
178
170
160
144
128
126
126
110
108
108
90
88
106
88
86
74
82
72
72
63
56
68
62
58
60
56
56
72
69
62
70
82
76
88
80
88
92
96
98
100
94
102
100
104
114
114
118
114
116
136
130
120
134
134
128
125
130
132
140
160
148
136
146
146
140
146
142
150
138
152
158
158
154
168
156
164
174
168
168
156
172
156
162
150
150
144
152
152
156
138
136
148
142
136
136
140
122
144
128
118
142
122
124
118
120
118
118
126
133
124
122
120
118
124
124
119
110
128
134
126
132
138
142
152
144
154
160
166
156
150
156
154
160
152
154
156
150
146
140
146
156
150
150
146
130
142
146
148
142
144
142
142
132
140
134
132
130
139
136
144
122
130
124
128
112
122
124
112
126
130
122
138
124
134
138
124
132
130
140
132
140
146
154
142
148
157
169
164
172
174
170
174
186
182
184
182
188
200
200
196
196
202
206
216
222
236
224
242
254
254
254
267
262
272
262
276
282
284
294
308
300
306
316
294
317
312
301
310
312
304
312
309
294
300
308
300
304
292
302
300
286
280
268
270
268
254
266
250
244
250
262
238
242
240
240
246
234
228
226
233
220
230
234
212
236
206
230
218
218
220
216
205
202
205
205
192
198
196
188
198
190
182
190
184
186
180
170
170
176
168
160
172
172
166
168
174
174
192
190
182
182
190
198
186
184
192
194
200
198
214
216
202
220
222
226
234
250
248
254
262
270
278
285
286
282
298
300
315
318
316
324
332
344
340
342
350
362
362
362
366
377
378
384
376
392
386
396
408
404
416
404
414
412
420
422
428
420
420
426
440
444
450
436
452
454
456
476
460
472
472
496
482
496
506
496
492
514
520
524
546
542
548
566
572
568
574
576
594
598
602
610
620
642
644
660
662
662
686
690
686
698
706
706
716
732
740
744
750
750
760
772
778
780
792
790
800
814
818
822
828
845
844
846
856
876
872
874
886
884
884
880
888
890
888
896
886
890
890
874
872
878
888
862
862
850
848
840
828
814
808
808
808
800
786
784
782
778
768
758
758
744
748
730
710
692
698
682
682
664
662
648
638
622
622
612
606
604
592
560
574
566
558
548
536
536
530
526
508
508
498
494
478
468
460
448
444
436
434
424
406
398
396
384
384
362
370
360
346
334
324
322
304
294
296
286
282
274
270
256
256
252
252
246
248
228
234
222
216
218
210
200
204
186
182
180
154
162
174
160
156
144
142
140
128
122
118
120
114
120
106
102
102
92
104
99
94
100
87
88
96
102
88
86
96
96
96
96
94
106
104
96
106
94
94
94
92
102
100
94
96
100
96
104
108
90
108
100
108
98
102
98
96
96
108
106
114
116
110
118
116
122
138
138
144
144
142
152
150
148
160
170
166
182
186
182
184
191
194
204
202
214
212
228
208
238
244
242
248
260
260
296
282
280
294
290
306
304
314
308
312
318
328
326
326
332
336
334
344
344
358
358
364
368
364
342
380
360
372
370
378
374
378
384
388
386
396
390
404
388
392
404
408
396
402
394
392
398
398
388
408
386
384
380
374
378
376
362
358
356
356
336
346
347
354
358
350
342
340
334
344
338
328
319
318
330
324
330
342
324
328
324
326
330
324
318
326
322
318
322
318
316
306
304
312
318
302
320
310
310
300
298
302
290
294
301
286
286
284
268
274
282
272
274
276
270
270
264
252
256
250
248
256
248
254
250
262
242
254
250
250
240
246
226
250
242
228
242
242
236
242
248
244
242
250
240
246
252
250
252
242
242
249
254
240
250
244
240
242
246
246
238
238
246
236
232
222
224
218
220
218
214
214
198
204
200
198
194
198
188
192
178
174
188
186
182
182
182
182
176
174
184
188
188
184
192
188
190
200
196
206
214
204
212
216
222
238
238
248
250
262
264
270
286
290
286
306
302
316
326
322
334
346
364
362
384
390
394
406
418
418
428
436
438
450
452
472
472
486
486
496
516
516
530
528
556
556
558
572
586
590
606
626
618
636
654
660
670
690
694
710
710
726
738
752
758
776
782
794
804
818
824
824
842
848
848
860
856
863
884
868
882
882
882
886
882
894
904
891
900
906
900
894
904
884
886
886
882
884
864
878
884
876
874
870
874
868
856
876
856
850
832
842
850
838
844
836
822
826
820
812
822
812
806
806
802
792
790
778
779
776
772
770
762
748
752
734
734
728
714
724
696
700
692
676
670
666
662
654
640
636
632
614
604
598
600
570
572
552
554
534
532
520
516
498
488
480
472
466
464
452
450
432
418
413
410
398
378
384
360
352
344
328
330
328
316
310
292
292
282
268
256
254
246
242
224
226
212
188
192
188
190
174
166
152
146
146
122
124
124
96
98
98
98
90
84
74
68
66
52
56
60
58
48
54
48
58
46
60
54
54
66
51
58
58
50
58
50
54
58
50
56
56
50
48
62
52
64
56
58
54
58
56
64
62
64
70
70
68
64
74
82
78
86
90
92
90
84
92
84
88
96
92
104
92
93
90
98
96
94
89
88
80
88
94
74
84
84
78
86
86
82
88
90
92
104
96
106
96
94
96
102
92
104
94
108
102
104
98
84
102
100
88
94
100
84
78
80
72
76
72
66
66
64
63
70
60
62
68
60
71
66
64
58
64
60
70
66
70
68
72
70
82
78
90
88
